Energy,Value,Error
1e-07,3.89286158227509e-11,0.045920330896585496
4.1399e-07,8.096417788559932e-10,0.00927833690100635
5.3158e-07,4.6255489131541915e-10,0.014000481006736613
6.825599999999999e-07,6.196260401308235e-10,0.011354417452892151
8.7643e-07,8.36398577559161e-10,0.010746301368193772
1.1252999999999998e-06,1.1012215838210658e-09,0.008497768595953362
1.445e-06,1.3974930013931252e-09,0.007438207212216243
1.8553999999999998e-06,1.7457132526340495e-09,0.0072608047153386365
2.3824e-06,2.1699304944949434e-09,0.006699397396634812
3.059e-06,2.5901771535235745e-09,0.005432657238636947
3.9279e-06,3.1171125396396197e-09,0.005212904899530389
5.043499999999999e-06,3.667234259256991e-09,0.004534290731291737
6.4759e-06,4.2748625814038105e-09,0.0050638368623989365
8.3153e-06,4.936035684563063e-09,0.003861416704291408
1.0677e-05,5.693430846924996e-09,0.0041373270201965195
1.3710000000000001e-05,6.390741864753668e-09,0.00347058774754284
1.7604e-05,7.1688352636473915e-09,0.003663614427550109
2.2603e-05,7.923204295823079e-09,0.0031436042627997532
2.9023e-05,8.816213921789294e-09,0.003191620391802783
3.7266e-05,9.673940159305985e-09,0.0033799822266499194
4.7851e-05,1.0442366413875721e-08,0.002631191286428719
6.1442e-05,1.1428594506504325e-08,0.0026440920471236967
7.889299999999999e-05,1.2220891594069892e-08,0.0026381156883985408
0.0001013,1.3094533169518385e-08,0.0025629597479227156
0.00013006999999999998,1.3986039717341724e-08,0.002606807929701179
0.00016702,1.4933682383168722e-08,0.0024403234892894955
0.00021444999999999998,1.5911567421369038e-08,0.002273806615216347
0.00027536,1.6770671079612772e-08,0.0022359131791428884
0.00035358,1.9565463500509137e-08,0.002070506404593733
0.000454,2.7420693629285836e-08,0.0017362556388678372
0.00058295,2.8910240993689584e-08,0.001554436889836151
0.0007485199999999999,3.041753553975006e-08,0.0019908219777082284
0.00096112,3.199858828337909e-08,0.0017638311921843509
0.0012341,3.368022784661646e-08,0.0015706379852888051
0.0015845999999999998,3.565777125840141e-08,0.0013129539442747237
0.0020347,3.7891197203543134e-08,0.001486674053246693
0.0022486999999999997,1.591457252607506e-08,0.0017213938379548816
0.0024852,1.6509831069910333e-08,0.002371799787303051
0.0026125999999999996,8.552491316755293e-09,0.003089328633612406
0.0027465,8.797115493733172e-09,0.0031516033931643884
0.0030354,1.85965870061284e-08,0.002185688385564697
0.0033545999999999997,2.0352790910809727e-08,0.0019339990073842298
0.0037074,2.4222360948112796e-08,0.001963484309662527
0.004307399999999999,9.461965292935518e-08,0.0007164424140517502
0.0055308,5.145246685881688e-08,0.0011326202861072757
0.0071017,6.988196804966736e-08,0.001054085704937028
0.009118799999999998,1.1279229137904066e-07,0.000684811342565978
0.010595,3.029408483260628e-07,0.00035150577046453934
0.011708999999999999,3.18740454865455e-08,0.00164386962531833
0.015033999999999999,2.433374603739816e-06,0.0001401442872044855
0.019303999999999998,1.9355010319954534e-06,0.00016910865004818182
0.021875,5.2632465491981396e-08,0.0013950689864473806
0.023579,1.6461424343332941e-06,0.0001605052232234342
0.024176,3.246198874829534e-07,0.00036573186356697606
0.024787999999999998,4.663375370083666e-10,0.016087570267535364
0.026057999999999998,5.971656964034277e-09,0.00423335149379552
0.027,9.247595142827387e-09,0.0029574901659003084
0.028501,2.207526326022329e-08,0.001950804832605711
0.031827999999999995,7.143531586738032e-08,0.001030529994686984
0.034307,7.32515206200013e-08,0.0010101553132707524
0.040868,2.4905117043840126e-07,0.0005813891887268034
0.046308999999999996,8.601533742349393e-07,0.0002666787529000584
0.052475,1.732783717788239e-07,0.0006441681157624174
0.056561999999999994,2.864663124393176e-07,0.00045083184962326525
0.06738,8.918776069789887e-07,0.00025352013151210445
0.07202399999999999,3.277979102355916e-07,0.00039555872283481534
0.079499,8.420824151602813e-07,0.00026083997134001576
0.08250299999999999,6.112610026005789e-08,0.0012561817373041896
0.086517,1.224589938980537e-07,0.0009044924061272829
0.098036,1.1184587014000816e-06,0.00022964005610628116
0.11109,5.312611616294382e-07,0.00033914104372973934
0.11678999999999999,6.769940491436927e-07,0.0002690040100295803
0.12276999999999999,3.178625023227786e-07,0.000387658425148989
0.12907,2.384609239246157e-07,0.0004884564502785816
0.13569,6.367792207895534e-07,0.00028565331120781307
0.14264,3.694790208109895e-07,0.0004145508514847782
0.14995999999999998,4.1054567222847894e-07,0.00036975863750768285
0.15764,4.286300494073526e-07,0.00036267482793743406
0.16573,4.4570174828240054e-07,0.0003634414908836624
0.17421999999999999,4.644233664074023e-07,0.0003076764108216875
0.18316,4.846205524487201e-07,0.0003392860964568927
0.19255,5.070105481816248e-07,0.0003110829282506664
0.20242,5.269190180011745e-07,0.000342868773259292
0.2128,5.438181219445748e-07,0.00029766398802716614
0.22371,5.627065144720765e-07,0.00035554865465001233
0.23518,5.833095764286552e-07,0.00026904622046356407
0.24724,6.046102894522222e-07,0.0003022996158073684
0.27324,1.2668680206870531e-06,0.00020065284533997234
0.28725,6.57061305178979e-07,0.0002844158119662278
0.29452,3.347945982731004e-07,0.00036843566595825747
0.29721,1.2304644679095024e-07,0.0006512006922676199
0.29849,5.839146880031631e-08,0.0008755758031591686
0.30196999999999996,1.5804254448285213e-07,0.0006446784738770601
0.33372999999999997,1.3938204458071382e-06,0.0001782875465816846
0.36883,1.4420880804266752e-06,0.00019663162555921145
0.38774,7.282662472831261e-07,0.0003112001129145626
0.40762,7.338449638056554e-07,0.0002833012108114112
0.45049,1.480918153566294e-06,0.00020382189988042942
0.49787,1.4830722171202384e-06,0.0002090628347253324
0.5234,7.306739231066494e-07,0.00030975640591713536
0.55023,7.091599465412082e-07,0.00027294675843068895
0.57844,6.866015604201635e-07,0.00025985789896424967
0.6081,6.61314774771533e-07,0.000264476465919871
0.63928,6.262052923765456e-07,0.0002818002801588851
0.67206,5.894351810564958e-07,0.0002802491725978045
0.70651,5.518453303097186e-07,0.00024676684421589233
0.74274,4.978512156467384e-07,0.0003110377409774673
0.78082,4.4059779645107063e-07,0.00031470650153647635
0.82085,2.3148310607591747e-07,0.000524299764126436
0.8629399999999999,7.600413091913929e-08,0.001038068300152315
0.90718,6.60266050552653e-08,0.0011969319249423157
0.9616699999999999,6.484666969404323e-08,0.0011760709842489928
1.0026,3.860102960135454e-08,0.0013824563855160089
1.1079999999999999,6.865102008654847e-08,0.0009716225201186577
1.1648,2.63505885951072e-08,0.0014563699180071435
1.2246,2.3446047143882832e-08,0.0015012878130337033
1.2873999999999999,2.1249250386134085e-08,0.0017231490165881794
1.3534,1.938732265765223e-08,0.00190321031786642
1.4226999999999999,1.7772958502209685e-08,0.0017733926610880779
1.4957,1.648974837740899e-08,0.0020599818481703072
1.5724,1.526116538262603e-08,0.0018827674157957876
1.653,1.4053598951557432e-08,0.0022753087180768295
1.7377,1.2986169946302493e-08,0.002179433459566284
1.8268,1.1929652830695404e-08,0.002252324932591249
1.9204999999999999,1.0755920440466989e-08,0.0028327181191548094
2.019,9.68187035695145e-09,0.0025413974463079684
2.1225,8.776621186560227e-09,0.003037860530392036
2.2313,8.045258631346651e-09,0.002924259626867833
2.3068999999999997,4.955175815186872e-09,0.003448228308094398
2.3457,2.3933005468266347e-09,0.004798158279160407
2.3653,1.1569873240328841e-09,0.007809196321163049
2.3851,1.1547566420960287e-09,0.007250638342592199
2.4659999999999997,4.473619938578427e-09,0.0034688319888906347
2.5924,6.189761211199826e-09,0.0026809996306024378
2.7253,5.5615913732462824e-09,0.0037242637241350603
2.8649999999999998,4.925936298006958e-09,0.004265985742802941
3.0119,4.352084343417361e-09,0.0037575517320360993
3.1664,3.826495149578444e-09,0.00404983684310397
3.3287,3.444290143206053e-09,0.00417138962856573
3.6788,5.999877158756024e-09,0.0031428795392377173
4.0657,5.2079143113271534e-09,0.0036482764682991393
4.4933,4.622978612446836e-09,0.0034352329666594264
4.7237,2.1291932166107383e-09,0.004968959930493178
4.9658,2.0763265486877836e-09,0.005762904410992954
5.2204999999999995,2.038263757077417e-09,0.005538265408932038
5.488099999999999,2.0374409100106136e-09,0.00536116816723992
5.7695,2.1043151576392215e-09,0.0047773074707823365
6.0653,2.195029147360232e-09,0.0055715291030900135
6.3763,2.2638648980957293e-09,0.004955321959862722
6.5924,1.5357782676562007e-09,0.005548159137413526
6.7032,7.808501377486613e-10,0.007319999619230311
7.0469,2.426804183578925e-09,0.005387088699798468
7.4082,2.5914013192110844e-09,0.005034452905492866
7.787999999999999,2.734487616672312e-09,0.005069470562725819
8.1873,2.868444775625745e-09,0.004189777361433028
8.607099999999999,2.975307050882839e-09,0.0044160052274097505
9.048399999999999,3.285193511106728e-09,0.004144287241666029
9.5123,3.5257568753893666e-09,0.0033371774607610654
10.0,4.402381729184315e-09,0.003430196803440593
10.513,6.750722000091056e-09,0.002641104632890893
11.052,7.055482013479437e-09,0.0024603955245840058
11.618,7.395945236314361e-09,0.002459727617452284
12.213999999999999,7.980790186191444e-09,0.002092391366348598
12.523,4.224449135021801e-09,0.0031416154151523968
12.84,4.247652178886282e-09,0.003022367664179418
13.498999999999999,8.377369314049115e-09,0.001960285786905992
13.84,4.041812977691114e-09,0.0029814199911048747
14.190999999999999,9.712576548326552e-10,0.006180923554614173
14.549999999999999,0.0,
14.918,0.0,
15.683,0.0,
16.487,0.0,
16.904999999999998,0.0,
17.332,0.0,
19.64,0.0,
