Energy,Value,Error
1e-07,0.0,
4.1399e-07,0.0,
5.3158e-07,0.0,
6.825599999999999e-07,0.0,
8.7643e-07,0.0,
1.1252999999999998e-06,1.094767040487782e-11,0.046438161382036616
1.445e-06,2.660538505371491e-11,0.03169428981874983
1.8553999999999998e-06,3.398998281731233e-11,0.0326771863431756
2.3824e-06,4.060821929251223e-11,0.022667823834638282
3.059e-06,5.435645654514949e-11,0.02564473290542484
3.9279e-06,6.653622362990533e-11,0.021627275085318268
5.043499999999999e-06,8.767779510216288e-11,0.018249909557888352
6.4759e-06,1.1651429238172632e-10,0.01633926440943624
8.3153e-06,1.458356508902931e-10,0.01319059775602725
1.0677e-05,1.9179921524129501e-10,0.01131916426208858
1.3710000000000001e-05,2.456654434720908e-10,0.011205616866567902
1.7604e-05,3.0904353904289377e-10,0.009296688884282277
2.2603e-05,3.9024583982985127e-10,0.007419408550036571
2.9023e-05,5.078297094495467e-10,0.009093825021095455
3.7266e-05,6.533894588571151e-10,0.007001671843263422
4.7851e-05,8.357366913128722e-10,0.0060482147075841385
6.1442e-05,1.0818055871148435e-09,0.006178067912984902
7.889299999999999e-05,1.3924020635913212e-09,0.0045922438651903276
0.0001013,1.7683761040666116e-09,0.004410118656710092
0.00013006999999999998,2.29603628567338e-09,0.004299445380826475
0.00016702,2.9453490925516047e-09,0.003215596352531116
0.00021444999999999998,3.769880899818242e-09,0.0032523419236053373
0.00027536,4.857319006946232e-09,0.0024639693925454973
0.00035358,6.2278603706996445e-09,0.0020413929150854978
0.000454,8.00518385761684e-09,0.0019671808933915476
0.00058295,1.0260908422633676e-08,0.0016784371742470346
0.0007485199999999999,1.3174418751016128e-08,0.0015202923523782727
0.00096112,1.6929492462185947e-08,0.0013064123821374407
0.0012341,2.174288428738386e-08,0.0012411029455396193
0.0015845999999999998,2.7849503243883958e-08,0.0010609391680027995
0.0020347,3.5858820431395004e-08,0.0010165205578774193
0.0022486999999999997,1.7025743826260325e-08,0.0012996137017695641
0.0024852,1.8837086530372164e-08,0.0012893488658802256
0.0026125999999999996,1.0116907944960187e-08,0.00175969095575572
0.0027465,1.0652396946045903e-08,0.001643168223655176
0.0030354,2.2972224369875807e-08,0.001303508464973571
0.0033545999999999997,2.537644506127056e-08,0.00118957281583212
0.0037074,2.808306723074497e-08,0.0010502248165361711
0.004307399999999999,4.7788511816230334e-08,0.0008140817609940631
0.0055308,9.73671237025786e-08,0.0006734592872385857
0.0071017,1.2501757163432574e-07,0.0004623198771712302
0.009118799999999998,1.6051727778886723e-07,0.00048713045913305195
0.010595,1.1754187770513717e-07,0.0005211373826295508
0.011708999999999999,8.86524379175829e-08,0.0005657010995379584
0.015033999999999999,2.647194949385124e-07,0.00034165503923351103
0.019303999999999998,3.397786768576733e-07,0.0003043199229521033
0.021875,2.0450693840040924e-07,0.000373589322363966
0.023579,1.3563497998499562e-07,0.0004458286446870496
0.024176,4.755403813374453e-08,0.0008437141766355099
0.024787999999999998,4.866232159003922e-08,0.0007961533480245079
0.026057999999999998,1.0109037715302367e-07,0.0005919037997778763
0.027,7.490418664862018e-08,0.0006855471052388505
0.028501,1.1948075414684085e-07,0.0005184850860049272
0.031827999999999995,2.647930746626655e-07,0.0003480916957137855
0.034307,1.9720719389916183e-07,0.00040852049066887754
0.040868,5.221058805484082e-07,0.0002222144400575894
0.046308999999999996,4.3295036857426873e-07,0.00025420036311754737
0.052475,4.906076074707891e-07,0.0002567487967378173
0.056561999999999994,3.251873896615181e-07,0.00031218646579515787
0.06738,8.621932768923033e-07,0.00018679174057455912
0.07202399999999999,3.780949471168178e-07,0.0002922400972612795
0.079499,5.962605751838282e-07,0.00022942810681253007
0.08250299999999999,2.3726031560454298e-07,0.00032591632835950635
0.086517,3.188804862988154e-07,0.00032869500055679267
0.098036,9.156540929453234e-07,0.00019656439589358697
0.11109,2.5415226265273077e-07,0.0003644767929427452
0.11678999999999999,5.033116951405095e-08,0.0008194104620600574
0.12276999999999999,5.286863009986643e-08,0.0007593734066342694
0.12907,5.5750695103137735e-08,0.0007702329744957401
0.13569,5.867453111843096e-08,0.0006756127894246297
0.14264,6.147634501257175e-08,0.0007439982719095698
0.14995999999999998,6.477798756333514e-08,0.0007069273988436727
0.15764,6.808589880920548e-08,0.000673706368859001
0.16573,7.229623137680497e-08,0.0006972510101095466
0.17421999999999999,7.526317589249689e-08,0.000706209626495132
0.18316,7.879501335742775e-08,0.0006176528371549917
0.19255,8.30330461750772e-08,0.0006337326795686371
0.20242,8.732647868283395e-08,0.0004966992744926676
0.2128,9.201752494120431e-08,0.0006168724187254015
0.22371,9.652138839466719e-08,0.0005712237089275318
0.23518,1.0160219235408674e-07,0.0005100768575041983
0.24724,1.0724416343800181e-07,0.0005873883674674883
0.27324,2.3013621058162493e-07,0.00037562973157164055
0.28725,1.2409811139598e-07,0.00045683346065774195
0.29452,6.449817559950931e-08,0.0008182974012741838
0.29721,2.3827490561807754e-08,0.0011376646867394405
0.29849,1.1309782789076248e-08,0.001572795363721578
0.30196999999999996,3.078028559683416e-08,0.0009391355348318664
0.33372999999999997,2.8147980481315886e-07,0.0003015972811660854
0.36883,3.110121992020932e-07,0.0003475161810659762
0.38774,1.6755852938089733e-07,0.0004485289385138804
0.40762,1.759226461113626e-07,0.0004534766538645215
0.45049,3.7992008758879163e-07,0.0002965835196572901
0.49787,4.194673942315138e-07,0.0002925931761995503
0.5234,2.2617829135407076e-07,0.0003399201089091137
0.55023,2.3770789793772484e-07,0.0003762530276434287
0.57844,2.5002738948503206e-07,0.00034245010999292097
0.6081,2.6287544925011596e-07,0.00033049070504623907
0.63928,2.763060786828705e-07,0.0002859731654163397
0.67206,2.902808277262864e-07,0.0003683845560702701
0.70651,3.0519138393947234e-07,0.0003317152536736131
0.74274,3.205414767909951e-07,0.0002915255291449749
0.78082,3.371890952699113e-07,0.00028155924691049814
0.82085,3.5464733428211203e-07,0.00026936775336873785
0.8629399999999999,3.730152183311753e-07,0.0003140715747701482
0.90718,3.9178081039261163e-07,0.00029155684428231176
0.9616699999999999,4.824213517446795e-07,0.00022544544674352556
1.0026,3.4108659173425333e-07,0.00030784924043442206
1.1079999999999999,9.44317466582567e-08,0.0005337440359971086
1.1648,5.084816159334141e-08,0.0007385470730578997
1.2246,5.365692656288684e-08,0.0006678186476408069
1.2873999999999999,5.627728002196307e-08,0.000776099162676279
1.3534,5.9232805659393086e-08,0.0006992434075720425
1.4226999999999999,6.205191055230275e-08,0.0007330061366550236
1.4957,6.530600273431339e-08,0.0006504627846906578
1.5724,6.859962499358801e-08,0.0006557750848815402
1.653,7.214052345152207e-08,0.0007199621869383961
1.7377,7.58289869724919e-08,0.000735497543761418
1.8268,7.978513586031164e-08,0.0006479169986877045
1.9204999999999999,8.388087743844722e-08,0.0007032147458857843
2.019,8.808726167187567e-08,0.0005839807352320933
2.1225,9.235290897605787e-08,0.0006011076769132554
2.2313,9.717630840603769e-08,0.000569916953030813
2.3068999999999997,6.736919676894827e-08,0.0006797466617329168
2.3457,3.4616339497372144e-08,0.0009472790968125583
2.3653,1.7400955014643264e-08,0.001370354937737077
2.3851,1.764380745305861e-08,0.0014949487714891133
2.4659999999999997,7.204271576100713e-08,0.0006731447890380315
2.5924,1.124743758204625e-07,0.0005549907807866639
2.7253,1.182768777671052e-07,0.00048144547287000785
2.8649999999999998,1.2418997770822968e-07,0.0005241448572738957
3.0119,1.3059361414004447e-07,0.000524970658557816
3.1664,1.3727691433755144e-07,0.0005166531461157621
3.3287,1.439738525312885e-07,0.0004513654738977938
3.6788,3.103267224866397e-07,0.000330798701835786
4.0657,3.4268131492426784e-07,0.0002837450921138745
4.4933,3.7845737801118283e-07,0.0002727415282144386
4.7237,2.037327598674053e-07,0.0003559216698237195
4.9658,2.1397272718930167e-07,0.00041292650412220496
5.2204999999999995,2.2505207303461924e-07,0.00032279015590511726
5.488099999999999,2.365756296838325e-07,0.0003512566545061565
5.7695,2.4877705185731797e-07,0.00031685022652644396
6.0653,2.612131515567516e-07,0.0003565104340018114
6.3763,2.74660808693091e-07,0.00031556718988609903
6.5924,1.9089351714082278e-07,0.000361250080606133
6.7032,9.783487645703162e-08,0.0006079784638571876
7.0469,3.0352415741446005e-07,0.0002910593482540708
7.4082,3.190150405125907e-07,0.0003607129174303547
7.787999999999999,3.352139361041835e-07,0.0002579733991341074
8.1873,3.5278764770339e-07,0.0003096910352534722
8.607099999999999,3.706591443386724e-07,0.00027702275572562236
9.048399999999999,3.896824034335142e-07,0.00027194276966726076
9.5123,4.0968224867074644e-07,0.0002815654326196769
10.0,4.305799812574004e-07,0.0003060113199005184
10.513,1.0184701700122484e-06,0.00016477350412328544
11.052,1.0702009312782544e-06,0.0001702196356551563
11.618,1.1233898292898125e-06,0.00014865623994769953
12.213999999999999,1.1832856637324941e-06,0.00017490514986919135
12.523,6.133992234123003e-07,0.0002138312911634401
12.84,6.295441637858639e-07,0.00022591873200192468
13.498999999999999,1.3083763552909545e-06,0.00016277418607879386
13.84,6.769971086955578e-07,0.00021365604803433744
14.190999999999999,3.175255232787082e-07,0.0003245637781495502
14.549999999999999,0.0,
14.918,0.0,
15.683,0.0,
16.487,0.0,
16.904999999999998,0.0,
17.332,0.0,
19.64,0.0,
