Energy,Value,Error
1e-07,9.018462691440749e-08,0.0003633998370740508
4.1399e-07,7.367091893842542e-07,0.00032062037599580223
5.3158e-07,8.921883362784566e-07,0.0005854950986811237
6.825599999999999e-07,9.516033415416396e-07,0.0005661862928041428
8.7643e-07,1.0161332191903495e-06,0.0006626464685944107
1.1252999999999998e-06,1.0841149744140642e-06,0.0004717653863814177
1.445e-06,1.156377296156196e-06,0.0005594001750228957
1.8553999999999998e-06,1.2324987812855375e-06,0.0005185988126664649
2.3824e-06,1.3107675333269444e-06,0.0005332243811603798
3.059e-06,1.3950194907255243e-06,0.0004358200075718606
3.9279e-06,1.4810555720981462e-06,0.0004690198433233332
5.043499999999999e-06,1.5713005724926287e-06,0.0004700559354623665
6.4759e-06,1.6655905493488138e-06,0.0004432485897266247
8.3153e-06,1.762207978678393e-06,0.00047229118419977843
1.0677e-05,1.8837545722698448e-06,0.00045817158674331057
1.3710000000000001e-05,1.9649764886570164e-06,0.0004343073820888307
1.7604e-05,2.07482170144872e-06,0.000396794663853072
2.2603e-05,2.187798342370657e-06,0.0004041278286609515
2.9023e-05,2.305967322168666e-06,0.0003809485254283472
3.7266e-05,2.4291659322791e-06,0.000347702722590107
4.7851e-05,2.550927370333817e-06,0.00030271834499617285
6.1442e-05,2.6779002998821515e-06,0.0003178687012468758
7.889299999999999e-05,2.807569045955921e-06,0.0003081404749766862
0.0001013,2.940472652419e-06,0.0003313835682147632
0.00013006999999999998,3.072645174649486e-06,0.00033596255883754745
0.00016702,3.202882272693433e-06,0.0003095043441646059
0.00021444999999999998,3.3377068707262215e-06,0.0003193606666303385
0.00027536,3.467927164118026e-06,0.000285815744057235
0.00035358,3.595248015441813e-06,0.00031477138591021176
0.000454,3.719124034583027e-06,0.0002775600172840186
0.00058295,3.8356844203904705e-06,0.0003433976764555614
0.0007485199999999999,3.940899972282486e-06,0.00028325604407230805
0.00096112,4.0301816834357685e-06,0.0002812609519843406
0.0012341,4.089527678724591e-06,0.0002906541623155671
0.0015845999999999998,3.895799249426776e-06,0.0002818371918503245
0.0020347,4.177875438329801e-06,0.00026657119121081477
0.0022486999999999997,4.300267377114807e-06,0.00038965707064075433
0.0024852,4.325788856521772e-06,0.0004859264107643379
0.0026125999999999996,4.331157279438836e-06,0.0006237555522042628
0.0027465,4.335869110215873e-06,0.0005412899607557621
0.0030354,4.344721222688207e-06,0.00044628879427099314
0.0033545999999999997,4.3549896828912644e-06,0.00040746167357119347
0.0037074,4.350162098673508e-06,0.0004266521027719282
0.004307399999999999,4.333126638108291e-06,0.00035253010876117437
0.0055308,4.268394882443159e-06,0.0002702200759958817
0.0071017,4.238034597430503e-06,0.00026408314294924025
0.009118799999999998,4.1279774595751334e-06,0.00027226802646260906
0.010595,4.028057244734022e-06,0.00034994689650355023
0.011708999999999999,3.926726032425914e-06,0.00046540394309490255
0.015033999999999999,3.830769113536471e-06,0.0003075685262151511
0.019303999999999998,3.581177083010498e-06,0.0002874237001646111
0.021875,3.3410948313508182e-06,0.00042805096036697737
0.023579,3.189586205181143e-06,0.0006038006983872263
0.024176,2.7370010401913496e-06,0.0009999675473542121
0.024787999999999998,2.403861919389546e-06,0.000947536747257763
0.026057999999999998,1.6504725827529271e-06,0.0009895445930843806
0.027,3.7000975068335787e-07,0.0026552912690718483
0.028501,6.879246712027331e-07,0.0015463089032909149
0.031827999999999995,2.2946571970438914e-06,0.0005609232803318409
0.034307,2.625108593148717e-06,0.0006937532640722973
0.040868,2.4839421421914636e-06,0.0004484737660311494
0.046308999999999996,1.5102332490712562e-06,0.0005912147714428706
0.052475,5.017268866583404e-07,0.0014527680256242559
0.056561999999999994,2.1866892620708115e-06,0.0006934535344620354
0.06738,2.563165713298881e-06,0.00042992820640340613
0.07202399999999999,2.189623731007008e-06,0.000674942092105226
0.079499,1.6743383454960088e-06,0.0007147666691679422
0.08250299999999999,1.1401041352823019e-06,0.001322450731585282
0.086517,7.606515538070156e-07,0.0014549765635742016
0.098036,2.22636226006342e-07,0.0017121294674384887
0.11109,1.8697021600945416e-07,0.002264677362052955
0.11678999999999999,4.3973649556845634e-07,0.0019167028379563737
0.12276999999999999,6.325103906717334e-07,0.0016705590442900333
0.12907,7.662021187320002e-07,0.001324591005033693
0.13569,3.921195523427527e-07,0.0021712904106201743
0.14264,7.470613716747529e-07,0.001509739080132398
0.14995999999999998,8.245161635436846e-07,0.0014301156587795522
0.15764,9.739582204607247e-07,0.0010161423585401703
0.16573,1.0147847550752446e-06,0.001153745171076055
0.17421999999999999,5.343509908005366e-07,0.001849789158279616
0.18316,7.64765426570583e-07,0.0013630037061488805
0.19255,7.501399515906169e-07,0.001403601971452617
0.20242,6.831253776946712e-07,0.0014410795528386193
0.2128,4.557027716489656e-07,0.0017410480080827764
0.22371,1.9369394788637242e-07,0.0028082822002628662
0.23518,2.905376613235797e-07,0.002735087385181084
0.24724,1.776754733952458e-07,0.0033141759807916653
0.27324,1.1110171237600528e-07,0.0030639961773740233
0.28725,1.1098120771280278e-07,0.004159802106631629
0.29452,1.253980638059311e-07,0.005483837945311909
0.29721,1.2912591934172762e-07,0.007960110883744487
0.29849,1.453313343182916e-07,0.012753471949488119
0.30196999999999996,1.5528070772773137e-07,0.00704823374636648
0.33372999999999997,1.6301554273118554e-07,0.0026316970801051397
0.36883,1.6505491225324227e-07,0.002347753944170731
0.38774,1.8036976743751546e-07,0.003139558618182002
0.40762,2.206805213500472e-07,0.002720534152261959
0.45049,2.782653717355254e-07,0.001786152539798204
0.49787,6.620375772441021e-07,0.0011685915521638026
0.5234,5.288554325654271e-07,0.0017229508865063768
0.55023,7.54857760120702e-07,0.0013443176794779843
0.57844,9.052900594626928e-07,0.0013607225306845074
0.6081,6.251008867413473e-07,0.0015538616093318182
0.63928,7.13353810446974e-07,0.001622831423187574
0.67206,9.303565257870382e-07,0.0013432649238542722
0.70651,1.0180838949323758e-06,0.0013109640978396318
0.74274,1.1041440263426432e-06,0.001236975987195661
0.78082,8.855218896125425e-07,0.0010629586907855732
0.82085,9.226867559966017e-07,0.0013853690696556213
0.8629399999999999,8.629373897875219e-07,0.0012616966403646186
0.90718,7.08725935103915e-07,0.0013756214339218395
0.9616699999999999,6.499148801033084e-07,0.0014359372099915172
1.0026,8.927802490138304e-07,0.0012765182494433969
1.1079999999999999,8.19527679989889e-07,0.0010067936976445985
1.1648,7.285797327987665e-07,0.0016164755534348635
1.2246,6.032564183335443e-07,0.001718722191645758
1.2873999999999999,4.914024477157202e-07,0.0016878311697777998
1.3534,5.970632025030676e-07,0.0015464667759165517
1.4226999999999999,8.191434776260355e-07,0.0012660170342069367
1.4957,7.541157760934658e-07,0.0015762122537543233
1.5724,6.453509026254475e-07,0.0014565923459036276
1.653,5.237895227668315e-07,0.0019892558758002384
1.7377,6.071246515045429e-07,0.0016144763407115455
1.8268,6.953687198316425e-07,0.0013232538380157876
1.9204999999999999,6.958224808044963e-07,0.001520283703407302
2.019,4.881873930741168e-07,0.0019472119504345302
2.1225,5.645397306972323e-07,0.0016067578935652243
2.2313,6.555268040370339e-07,0.0013892681622992896
2.3068999999999997,4.978438036732275e-07,0.002112312461762129
2.3457,6.381422464187148e-07,0.0028028644577061832
2.3653,6.83485619262888e-07,0.0031596533744401513
2.3851,6.520712703141003e-07,0.0035101086295603835
2.4659999999999997,5.255665959176363e-07,0.0023876726619617684
2.5924,4.369091048635226e-07,0.0016628767306505372
2.7253,4.501185426117086e-07,0.0016540779809882976
2.8649999999999998,5.259561499933176e-07,0.0018988505790493518
3.0119,5.29766357184864e-07,0.0015928354513408134
3.1664,5.211592036253428e-07,0.001646634150484743
3.3287,5.742317119708211e-07,0.001456014970410667
3.6788,4.526235130450227e-07,0.0012990353494533849
4.0657,4.4570383945328135e-07,0.0012374949370435467
4.4933,3.384110549317227e-07,0.0012594028142631157
4.7237,3.053312163143843e-07,0.001962786904794425
4.9658,3.375237770118561e-07,0.0020418314593328517
5.2204999999999995,3.1961433394381534e-07,0.0019451958230991878
5.488099999999999,2.793823242017826e-07,0.0020506553855092384
5.7695,2.4490114914476917e-07,0.002089136626443702
6.0653,2.4455361511894935e-07,0.002236218271455028
6.3763,2.5211684821763586e-07,0.0022932313603351976
6.5924,2.493669550836247e-07,0.002756373899193041
6.7032,2.5101744131092723e-07,0.003562373902130208
7.0469,2.573414777328991e-07,0.0019870558863405337
7.4082,2.2388289116271447e-07,0.002383330186522986
7.787999999999999,2.2685184352420186e-07,0.0023018983242551402
8.1873,2.554961184128146e-07,0.001897567593643072
8.607099999999999,2.6588967594897854e-07,0.0019626651776914043
9.048399999999999,2.8168288702066126e-07,0.002105636250118893
9.5123,3.2795075000964007e-07,0.001748019361368119
10.0,4.107368539306163e-07,0.0015003419565610392
10.513,5.209470736105678e-07,0.0012509553976767294
11.052,5.874982065267656e-07,0.0012955066808929157
11.618,6.413283193781865e-07,0.0011567331291727557
12.213999999999999,6.616462904900962e-07,0.001183590406780305
12.523,6.510689723874064e-07,0.0017331372486798532
12.84,6.300346134832865e-07,0.0015418608385634521
13.498999999999999,5.633070370307978e-07,0.001107522786194796
13.84,4.0411277427210096e-07,0.0019693994076494985
14.190999999999999,7.968609142553816e-08,0.004096512076182093
14.549999999999999,0.0,
14.918,0.0,
15.683,0.0,
16.487,0.0,
16.904999999999998,0.0,
17.332,0.0,
19.64,0.0,
