Energy,Value,Error
1e-07,0.0,
4.1399e-07,0.0,
5.3158e-07,0.0,
6.825599999999999e-07,3.5945278767073147e-14,1.0
8.7643e-07,0.0,
1.1252999999999998e-06,1.0916147136005162e-11,0.04656128349599098
1.445e-06,2.680690239375039e-11,0.031538686786652614
1.8553999999999998e-06,3.404418154746025e-11,0.03316516011875448
2.3824e-06,4.0748041913065775e-11,0.022424145953429755
3.059e-06,5.447720593067625e-11,0.025758794275338625
3.9279e-06,6.703817348538221e-11,0.021182790717202166
5.043499999999999e-06,8.789599155987152e-11,0.018617593834502993
6.4759e-06,1.17044032595176e-10,0.01627818496195985
8.3153e-06,1.4616344439668523e-10,0.013196767999484157
1.0677e-05,1.9262976597796835e-10,0.011486453850231282
1.3710000000000001e-05,2.461143534490939e-10,0.011112108866829305
1.7604e-05,3.100118843928594e-10,0.00932564322555965
2.2603e-05,3.9152895137229074e-10,0.007473727140151854
2.9023e-05,5.102248078110095e-10,0.008971113078266075
3.7266e-05,6.552002166239244e-10,0.007071787307283792
4.7851e-05,8.399376816946857e-10,0.005991657687200246
6.1442e-05,1.0854464544060093e-09,0.00609961225447057
7.889299999999999e-05,1.3969406204015892e-09,0.004699681296323356
0.0001013,1.7742246862181866e-09,0.0044621509162520645
0.00013006999999999998,2.30645280985735e-09,0.004324389230983254
0.00016702,2.953877407833484e-09,0.0032107039683023013
0.00021444999999999998,3.78203003117022e-09,0.0032756366133224178
0.00027536,4.874105172566892e-09,0.002493977958490181
0.00035358,6.2476147734203555e-09,0.0020301462394818246
0.000454,8.034158165374388e-09,0.001986062355062979
0.00058295,1.0293516448607602e-08,0.0016717331448561027
0.0007485199999999999,1.3221597411977641e-08,0.0015192420970538093
0.00096112,1.69851198690394e-08,0.001284866219942028
0.0012341,2.1819824703999436e-08,0.0012245147420932626
0.0015845999999999998,2.795133333829341e-08,0.001063433797008515
0.0020347,3.597579511954842e-08,0.0010307990969755016
0.0022486999999999997,1.7083330246827096e-08,0.0013587500211169631
0.0024852,1.889903405726419e-08,0.0012885336118707148
0.0026125999999999996,1.0149761599256254e-08,0.0017795904183053816
0.0027465,1.0685275678501888e-08,0.0016776290679998327
0.0030354,2.3048209251940483e-08,0.0012970671728481376
0.0033545999999999997,2.546443809184459e-08,0.0011792966026948585
0.0037074,2.8189236441142254e-08,0.0010308489639959352
0.004307399999999999,4.795109197476103e-08,0.0007989731898494973
0.0055308,9.770682889752855e-08,0.000666822885485983
0.0071017,1.2543663937133535e-07,0.0004495594465577608
0.009118799999999998,1.610778740259408e-07,0.0004916269668096749
0.010595,1.179285930364192e-07,0.0005214849599977993
0.011708999999999999,8.896040004753129e-08,0.0005614026285462099
0.015033999999999999,2.6563414302432533e-07,0.0003341960274385184
0.019303999999999998,3.409419737272483e-07,0.00030188995545333695
0.021875,2.0521100671816056e-07,0.00037612850323193343
0.023579,1.361037776374792e-07,0.00045021100754497534
0.024176,4.771135058172338e-08,0.0008331612138999167
0.024787999999999998,4.8822181745312066e-08,0.0007838261113525702
0.026057999999999998,1.0143985851410188e-07,0.0005816783272453997
0.027,7.51621874781999e-08,0.0007042003467566336
0.028501,1.1989077569670228e-07,0.0005211905441060107
0.031827999999999995,2.657123433929688e-07,0.0003386958368889911
0.034307,1.9789207465401837e-07,0.0004081755407306292
0.040868,5.239309395549762e-07,0.0002231496767956486
0.046308999999999996,4.344505602174363e-07,0.0002545478454723175
0.052475,4.923135010061714e-07,0.00026110260624178505
0.056561999999999994,3.262969624701246e-07,0.00031041956126316375
0.06738,8.634699245420435e-07,0.00018916602817261837
0.07202399999999999,3.7077183638819453e-07,0.00028718064673786357
0.079499,5.966781745406208e-07,0.00022811902988015766
0.08250299999999999,2.3943591423338043e-07,0.0003205490821912104
0.086517,3.1956851987785713e-07,0.00033288200685971766
0.098036,9.130379220048891e-07,0.00019607176268681792
0.11109,2.536166793681858e-07,0.0003615161323897684
0.11678999999999999,5.051591289222026e-08,0.0008224065699641588
0.12276999999999999,5.301629654497326e-08,0.0007510062229744377
0.12907,5.589413584109256e-08,0.0007694820088265446
0.13569,5.882179964232745e-08,0.0006890063824505605
0.14264,6.162676265375724e-08,0.0007565661358653675
0.14995999999999998,6.495568800197033e-08,0.000717220914547585
0.15764,6.810460357093302e-08,0.0006818014889290947
0.16573,7.180857944866488e-08,0.0006981699566335289
0.17421999999999999,7.528041127872586e-08,0.0007150660481391676
0.18316,7.932612323504137e-08,0.0006054842895080984
0.19255,8.326325295411552e-08,0.0006320125123571273
0.20242,8.753467285392403e-08,0.0004913909494288686
0.2128,9.20074828724854e-08,0.0006154013216828031
0.22371,9.679739390951564e-08,0.0005627043377863515
0.23518,1.018141040557562e-07,0.0005209013620529659
0.24724,1.071095810354305e-07,0.0005844644922614236
0.27324,2.3075630400714223e-07,0.0003664014953442845
0.28725,1.2450298875839073e-07,0.0004522481181654391
0.29452,6.471254790141282e-08,0.0008029325920125282
0.29721,2.3909371615189e-08,0.0011252969715563742
0.29849,1.1394088924239637e-08,0.001570503561127291
0.30196999999999996,3.0908187436579506e-08,0.0009169885588133558
0.33372999999999997,2.833427216624103e-07,0.000305796288847184
0.36883,3.134816894302046e-07,0.0003486548457584493
0.38774,1.6806034912318287e-07,0.0004587942711607807
0.40762,1.767412965376151e-07,0.00045335767357252224
0.45049,3.7749707348890436e-07,0.00029710865799682486
0.49787,4.186465123639716e-07,0.0002966980771518935
0.5234,2.2618123409851057e-07,0.0003448009356435372
0.55023,2.3766702442660837e-07,0.000386509178465239
0.57844,2.500719239964468e-07,0.00035018838317497545
0.6081,2.630214022683659e-07,0.0003389120271556164
0.63928,2.766087748625856e-07,0.00028409821913895106
0.67206,2.904735678521076e-07,0.0003667236017299658
0.70651,3.053926666498563e-07,0.0003310494263182967
0.74274,3.214888140388245e-07,0.000297198985150916
0.78082,3.3888538197141006e-07,0.0002863013327633871
0.82085,3.5614025081703963e-07,0.0002710439137351605
0.8629399999999999,3.7295892433639605e-07,0.0003118115182393893
0.90718,3.907066159855085e-07,0.0002882835276273672
0.9616699999999999,4.801882560001748e-07,0.00022648077542968304
1.0026,3.372474788845225e-07,0.00030747343624860625
1.1079999999999999,9.320231866538878e-08,0.000539075807014492
1.1648,5.0357951135161174e-08,0.0007541442058699402
1.2246,5.3185518212943536e-08,0.0006707142592322533
1.2873999999999999,5.586403507168376e-08,0.000776455202363731
1.3534,5.8427319496095216e-08,0.00069879748641684
1.4226999999999999,6.153498766451686e-08,0.0007163404506197412
1.4957,6.481223550240583e-08,0.0006480218367931651
1.5724,6.807500315912855e-08,0.000645340495683548
1.653,7.144434137494523e-08,0.0007026675755981193
1.7377,7.515702628210655e-08,0.000719432832734564
1.8268,7.915304946415907e-08,0.0006500707517283907
1.9204999999999999,8.297195153664871e-08,0.0006967468996255336
2.019,8.728480514027952e-08,0.0005930425430905535
2.1225,9.15934477700692e-08,0.0005921932722178555
2.2313,9.647718212227869e-08,0.000558048370755847
2.3068999999999997,6.70308176570065e-08,0.000689240142166575
2.3457,3.445997790134581e-08,0.0009619370661376154
2.3653,1.7376915584227003e-08,0.0013734206867728686
2.3851,1.7593823189274374e-08,0.0014914734234465446
2.4659999999999997,7.181266264575193e-08,0.000672495900515799
2.5924,1.1218943661924422e-07,0.0005473815737220808
2.7253,1.1821464404787435e-07,0.00047417055924548927
2.8649999999999998,1.24043792264708e-07,0.0005373615474755731
3.0119,1.304828466726023e-07,0.0005129265781087643
3.1664,1.3745745299384288e-07,0.0005104203211401373
3.3287,1.4401468128160096e-07,0.0004456803542881947
3.6788,3.101259718392458e-07,0.00033563777408487455
4.0657,3.4270013035215327e-07,0.00028239464852075125
4.4933,3.791398131537471e-07,0.00027521034564764805
4.7237,2.041105708994632e-07,0.00035945800041966495
4.9658,2.1455981377604393e-07,0.00040561257944292384
5.2204999999999995,2.2564352018618294e-07,0.0003280015540480156
5.488099999999999,2.3720263412100306e-07,0.0003533721645621815
5.7695,2.4917043373555837e-07,0.0003201630814034385
6.0653,2.615457176670584e-07,0.0003573882567204839
6.3763,2.751048854868738e-07,0.00031600360856398217
6.5924,1.912140843381333e-07,0.0003600598499881242
6.7032,9.798148430458146e-08,0.0006102946847410186
7.0469,3.0394108823302574e-07,0.00028774008138174664
7.4082,3.1921080375354493e-07,0.00035920210398420984
7.787999999999999,3.354533121698615e-07,0.000257975582491931
8.1873,3.531263897609292e-07,0.0003133159023245901
8.607099999999999,3.710156321912291e-07,0.00027834180157540814
9.048399999999999,3.903531469248626e-07,0.00027505612983207736
9.5123,4.107035909899929e-07,0.00028060838855902643
10.0,4.314295457678162e-07,0.00030553239904619703
10.513,1.0190268934081472e-06,0.0001674718336343039
11.052,1.0714602859040756e-06,0.00017123957510019436
11.618,1.1237519135957332e-06,0.00014775420760576065
12.213999999999999,1.183571911616347e-06,0.0001749035209266076
12.523,6.135975828639755e-07,0.00021276210500382694
12.84,6.29650008173275e-07,0.0002257797121546907
13.498999999999999,1.3081590738228956e-06,0.000162203704229962
13.84,6.766998869599026e-07,0.00021394152334740094
14.190999999999999,3.172425520798684e-07,0.00032471754664968524
14.549999999999999,0.0,
14.918,0.0,
15.683,0.0,
16.487,0.0,
16.904999999999998,0.0,
17.332,0.0,
19.64,0.0,
