Energy,Value,Error
1e-07,0.0,
4.1399e-07,0.0,
5.3158e-07,0.0,
6.825599999999999e-07,0.0,
8.7643e-07,0.0,
1.1252999999999998e-06,1.7098694411903003e-13,0.6223847702968406
1.445e-06,5.954019136877014e-13,0.2951067645472292
1.8553999999999998e-06,1.3518310334197431e-12,0.2127801112074587
2.3824e-06,6.535767126742631e-12,0.09233915769267817
3.059e-06,2.2278514116587212e-11,0.054515774733749106
3.9279e-06,6.695725987007266e-11,0.035462509206037544
5.043499999999999e-06,1.7692335628311525e-10,0.02430657202308278
6.4759e-06,4.498437994372951e-10,0.01326464896737125
8.3153e-06,1.0021673954764378e-09,0.010198534773325286
1.0677e-05,2.1796448815166187e-09,0.006651579609675275
1.3710000000000001e-05,4.269532628213797e-09,0.004180365681616505
1.7604e-05,7.876647266783939e-09,0.0034770808915421617
2.2603e-05,1.3804324357103044e-08,0.002375928187291956
2.9023e-05,2.2765531469523392e-08,0.00189502491154647
3.7266e-05,3.588135004062814e-08,0.0015484322127426408
4.7851e-05,5.411915798322439e-08,0.001095642707491979
6.1442e-05,7.821144199870613e-08,0.0010191412578335441
7.889299999999999e-05,1.0801866303289605e-07,0.0008220990905790874
0.0001013,1.4392373479428048e-07,0.0006989336364444027
0.00013006999999999998,1.835387402609113e-07,0.0006563671006162402
0.00016702,2.245530196527073e-07,0.000664294540509726
0.00021444999999999998,2.6190171757656677e-07,0.0005251806561550701
0.00027536,2.9055704979884e-07,0.0005259356729881348
0.00035358,3.048166713871142e-07,0.00048095658240641167
0.000454,3.002952899118765e-07,0.0005337225063406838
0.00058295,2.7553014892066847e-07,0.0005066819510597031
0.0007485199999999999,2.3647214439313813e-07,0.0006208383374087643
0.00096112,1.9114094320307052e-07,0.000625212580758732
0.0012341,1.5032959402915443e-07,0.0007894401907082722
0.0015845999999999998,1.1949081501868175e-07,0.0009208772988843542
0.0020347,9.732353147354009e-08,0.0009410651736282302
0.0022486999999999997,3.415649790911512e-08,0.00173040896977001
0.0024852,3.162173837434708e-08,0.001679807834519288
0.0026125999999999996,1.4929920042175153e-08,0.0023599219099838557
0.0027465,1.433925790140107e-08,0.00236596551923272
0.0030354,2.7001275629485855e-08,0.0018512615281029564
0.0033545999999999997,2.4787243940593514e-08,0.0020209797619389226
0.0037074,2.265018203519342e-08,0.002023443415628143
0.004307399999999999,3.020648243174157e-08,0.0017494712116489766
0.0055308,3.9941313459217235e-08,0.001271364426084021
0.0071017,2.8013540593411587e-08,0.0017926331930670017
0.009118799999999998,1.721906754413465e-08,0.0024266505566750093
0.010595,6.0352120307353164e-09,0.004378354784146332
0.011708999999999999,2.5806163530843896e-09,0.005498241205919119
0.015033999999999999,3.319633087300625e-09,0.005686734274316852
0.019303999999999998,1.4234156353659632e-09,0.007087698924102987
0.021875,7.420365466002493e-08,0.0007744897947046686
0.023579,1.0612705308003616e-09,0.009864079330454878
0.024176,4.065859437549552e-10,0.01463304367957987
0.024787999999999998,5.407301402465676e-10,0.014144248429862406
0.026057999999999998,1.552313673424487e-09,0.007435143323290068
0.027,1.6456732942101427e-09,0.008368404700186606
0.028501,3.90960584901771e-09,0.005290686280756375
0.031827999999999995,2.0310226791675818e-08,0.002270884782782225
0.034307,1.2947271337570046e-07,0.0007408499787864457
0.040868,1.5279708872929245e-06,0.00018544904022346875
0.046308999999999996,7.955618991924224e-08,0.0011537160573692202
0.052475,2.9241982812802844e-06,0.00012268627304004044
0.056561999999999994,2.565422406827119e-09,0.0072918826671697955
0.06738,2.630031953687727e-08,0.0019781190190641743
0.07202399999999999,2.0761535881046652e-08,0.0019205694774883362
0.079499,4.1537824330657206e-08,0.001535263908324052
0.08250299999999999,4.4815495626155815e-08,0.0012858566656515484
0.086517,2.1290534507276177e-07,0.00043318602139665843
0.098036,7.731648075279498e-08,0.0011334723739941895
0.11109,1.2207151159169207e-07,0.0008554701983207887
0.11678999999999999,7.37708210738964e-08,0.0010277775151572102
0.12276999999999999,1.431024686701295e-07,0.0006132406475791005
0.12907,6.527509054797852e-08,0.001167053339501762
0.13569,6.539429567072984e-08,0.0010399129147885813
0.14264,8.942509742835412e-08,0.0008837483909054432
0.14995999999999998,1.274225720493793e-07,0.0006374452109667185
0.15764,1.7788099710202884e-07,0.000611362049488836
0.16573,9.616559826433321e-08,0.0008873400464704029
0.17421999999999999,1.582332167803432e-07,0.0006104634834945219
0.18316,5.000678869306666e-07,0.0002723544988299528
0.19255,5.908422128857996e-07,0.00031613623491151256
0.20242,3.191395143084691e-08,0.0016771644729470024
0.2128,9.500836790982479e-08,0.0008145754863662449
0.22371,1.9232937695767235e-07,0.0005261343639278382
0.23518,5.776165395368976e-07,0.0002692832061515183
0.24724,1.5500576949282558e-06,0.00016688680433919403
0.27324,5.40528071954532e-07,0.0003182701648362907
0.28725,7.977702074828021e-08,0.001189144717182715
0.29452,1.112619940930223e-07,0.0008699729156002521
0.29721,6.194954070708452e-08,0.0010659845480997905
0.29849,3.4637382732680955e-08,0.0012124041484682976
0.30196999999999996,1.2643967335209547e-07,0.0006272955167321207
0.33372999999999997,1.6359597375362187e-06,0.00016782322879823426
0.36883,1.6313539639814358e-06,0.00018740669634987217
0.38774,4.954977273861557e-06,8.894340429794527e-05
0.40762,2.046029661154416e-06,0.00015211224257567188
0.45049,2.009577350779578e-06,0.0001672053924503336
0.49787,1.0618127791063982e-06,0.00024561894363470604
0.5234,1.3175927791916912e-06,0.0002149241643108656
0.55023,1.0229714521724262e-06,0.00030403514948654047
0.57844,1.3015657653651953e-06,0.00023320784959921596
0.6081,6.943400719885736e-07,0.0003445341164036704
0.63928,6.607852060004938e-07,0.0003108475095163771
0.67206,7.895824650469561e-07,0.00025484652326635736
0.70651,2.644029269013207e-07,0.0005308471334716632
0.74274,3.2673711704083006e-07,0.0005290579013025349
0.78082,3.275558092469879e-07,0.00044729607115173736
0.82085,6.424950521129978e-07,0.00033656150438150936
0.8629399999999999,5.165485518114428e-07,0.0003561722088898407
0.90718,2.6893616257461405e-07,0.000492010594111074
0.9616699999999999,3.7943951632935416e-07,0.0004423763085076235
1.0026,1.5096220312393653e-07,0.0007173755542083943
1.1079999999999999,3.467342696313085e-07,0.00043148896966690363
1.1648,1.8718208378501994e-07,0.0005678624446071505
1.2246,1.0507676162954553e-07,0.000714721233903198
1.2873999999999999,8.767012127889018e-08,0.0010311368863933892
1.3534,7.283344593809673e-08,0.001045561948819732
1.4226999999999999,4.941078206486736e-08,0.0012061042103386006
1.4957,4.947258554044544e-08,0.0010875884188373615
1.5724,5.4700411867873725e-08,0.0011842422496692265
1.653,5.0486008899324356e-08,0.0011966701990712462
1.7377,5.1415375708271134e-08,0.0010532978410803377
1.8268,4.389607337881492e-08,0.0011442566557650588
1.9204999999999999,3.763091470814893e-08,0.00133758937784166
2.019,3.3024393564428367e-08,0.001489558532070747
2.1225,3.58163338545705e-08,0.0012481523847028928
2.2313,3.553562046659694e-08,0.0013096129055685714
2.3068999999999997,2.1843241168089496e-08,0.0017719609758980628
2.3457,1.041729336819982e-08,0.002556313213247499
2.3653,5.0373299167244e-09,0.0037402757262346856
2.3851,4.246157899168861e-09,0.004632378981762635
2.4659999999999997,1.7099213203373175e-08,0.0018664911980861626
2.5924,2.551233570129052e-08,0.0017342694289014774
2.7253,2.3225191259286148e-08,0.0016578236058396765
2.8649999999999998,2.6245530202126845e-08,0.001539617180404296
3.0119,2.2313907986881366e-08,0.001779791540331339
3.1664,2.2984717989399555e-08,0.0016090195405493912
3.3287,2.095828699746619e-08,0.0018761830134463426
3.6788,3.582044468013234e-08,0.0012008620612659982
4.0657,3.274837356333389e-08,0.0014483839944643556
4.4933,2.9247755245671778e-08,0.0013383134031705764
4.7237,1.429513726703633e-08,0.002063464679392348
4.9658,1.3961753565012724e-08,0.0019501307148170838
5.2204999999999995,1.3919272586558697e-08,0.002043689950257741
5.488099999999999,1.4149043284044894e-08,0.002064768936405853
5.7695,1.3891313036568031e-08,0.0022493577611480053
6.0653,1.405156311189552e-08,0.0019933300095637523
6.3763,1.4228347765378675e-08,0.0019158248849786262
6.5924,9.46005033153249e-09,0.0023727925266076493
6.7032,4.762315782296782e-09,0.0036583203164832854
7.0469,1.431015296304014e-08,0.0018015866052286213
7.4082,1.4113209823237165e-08,0.0017841558482295753
7.787999999999999,1.4232032417964955e-08,0.0018129758238183498
8.1873,1.4311122147084835e-08,0.0016490011117168588
8.607099999999999,1.4525892383846485e-08,0.0018497383277895248
9.048399999999999,1.5608456307421572e-08,0.001607622499072531
9.5123,1.6569531914784186e-08,0.0017655546580762752
10.0,1.9608739174580773e-08,0.001533614442464522
10.513,2.8525120056174634e-08,0.0011507074951325684
11.052,2.9440940726075265e-08,0.0011529793121246572
11.618,3.140836780771703e-08,0.0012147598960334871
12.213999999999999,3.362875017312715e-08,0.0011697423618136711
12.523,1.7669921664730923e-08,0.001571670579267037
12.84,1.778235058069646e-08,0.0014936390365415664
13.498999999999999,3.446777031722574e-08,0.0008989879148890577
13.84,1.5483685354352988e-08,0.001531041604991963
14.190999999999999,4.240797808250029e-09,0.0028400421980952803
14.549999999999999,0.0,
14.918,0.0,
15.683,0.0,
16.487,0.0,
16.904999999999998,0.0,
17.332,0.0,
19.64,0.0,
