Energy,Value,Error
1e-07,4.27286843347286e-12,0.12574609594393954
4.1399e-07,3.9457950703171974e-10,0.015917968677419948
5.3158e-07,3.3254964148626143e-10,0.01677658177279429
6.825599999999999e-07,5.456839406520772e-10,0.013453561527973506
8.7643e-07,8.576723786517205e-10,0.010976411954126002
1.1252999999999998e-06,1.2573939898764466e-09,0.009533128497394546
1.445e-06,1.7720732524047117e-09,0.0075762793847468
1.8553999999999998e-06,2.3887269941043092e-09,0.005967708826727582
2.3824e-06,3.124311454491755e-09,0.005614064917091194
3.059e-06,3.949888255141906e-09,0.004890339738599568
3.9279e-06,4.9100542099909725e-09,0.005035021382388087
5.043499999999999e-06,5.909849452265168e-09,0.004053072905167926
6.4759e-06,6.935942360750261e-09,0.003775452520708337
8.3153e-06,8.029155330912251e-09,0.003212383741123773
1.0677e-05,9.286745867179555e-09,0.002927594887794901
1.3710000000000001e-05,1.0366936082005826e-08,0.003644319764108104
1.7604e-05,1.1552162788197685e-08,0.0028267108658842216
2.2603e-05,1.2671441598466879e-08,0.00290152845162601
2.9023e-05,1.3870541062122576e-08,0.002698977977014317
3.7266e-05,1.5077423456268454e-08,0.0025417489072701604
4.7851e-05,1.6355185397734448e-08,0.0027463498238716687
6.1442e-05,1.7472049939189578e-08,0.0024768185361169186
7.889299999999999e-05,1.8821125604350153e-08,0.002028140045779174
0.0001013,2.025297594051894e-08,0.002095809846513952
0.00013006999999999998,2.1676983488271088e-08,0.0018345023344441527
0.00016702,2.3360284769116517e-08,0.002176438284365472
0.00021444999999999998,2.537833913608805e-08,0.001975997916409332
0.00027536,2.749099771201429e-08,0.0017885912155809545
0.00035358,3.027060801619903e-08,0.0018256713352127617
0.000454,3.365506385697869e-08,0.0019809669633972233
0.00058295,3.781585608821423e-08,0.0014788764595424072
0.0007485199999999999,4.32827705900018e-08,0.00126229848697336
0.00096112,5.0523757337103994e-08,0.0012575227750854802
0.0012341,5.97190075372785e-08,0.0011757547928438637
0.0015845999999999998,8.128613142660734e-08,0.0010081053782041267
0.0020347,1.2459454209724387e-07,0.0008662630104284389
0.0022486999999999997,5.911953243104832e-08,0.0011691229689848376
0.0024852,6.557057587673628e-08,0.0012055679733896183
0.0026125999999999996,3.544233246576785e-08,0.0013487087636459454
0.0027465,3.703274030555256e-08,0.0013828017352322747
0.0030354,7.646009215800304e-08,0.0011661621681849596
0.0033545999999999997,3.498693441792867e-08,0.0017591657429798702
0.0037074,8.26329599477895e-08,0.0011159851003767856
0.004307399999999999,2.447782403649398e-07,0.0005949124699285842
0.0055308,8.084791594536883e-07,0.00029983293821229446
0.0071017,5.069985330357666e-06,0.00010575943653949046
0.009118799999999998,1.301846918642651e-07,0.0009262865600876684
0.010595,4.014376305510469e-07,0.00045020953789840054
0.011708999999999999,6.309359098527247e-07,0.00035847460758322344
0.015033999999999999,6.383734257493088e-06,8.01484738393222e-05
0.019303999999999998,1.1320449279812749e-07,0.0008780875455485042
0.021875,1.397407356582091e-07,0.0008226550731335166
0.023579,1.8206094624308453e-07,0.0006607581270591133
0.024176,9.021861866322338e-08,0.0008118713705275195
0.024787999999999998,5.375482623178038e-08,0.0012805779602748162
0.026057999999999998,9.678468397762093e-08,0.0010812615081194686
0.027,1.33090694979357e-07,0.0006957300276415751
0.028501,2.8123376203182385e-07,0.0004388367078274734
0.031827999999999995,1.5314385320772025e-07,0.0006723946617668108
0.034307,2.069742933509424e-08,0.002404037694915954
0.040868,1.6412513820894404e-07,0.0006904928030606781
0.046308999999999996,1.4094642156036072e-07,0.0007295529122249388
0.052475,1.8465016196183352e-07,0.0007287961880254099
0.056561999999999994,1.0284176178295835e-07,0.0009455312974617543
0.06738,1.4819472619523058e-07,0.0007604725795311686
0.07202399999999999,1.4219945798711542e-08,0.0026044067417366618
0.079499,1.7880297729079153e-08,0.0020722998720034335
0.08250299999999999,9.189847066325809e-09,0.0033162193383241894
0.086517,1.3611819606347696e-08,0.0028178133515266873
0.098036,4.495891291841117e-08,0.0012455410091078687
0.11109,5.040276891011117e-08,0.0012708897211427368
0.11678999999999999,2.2161739956708275e-08,0.0019958662806395266
0.12276999999999999,2.7614817638473564e-08,0.0017707855799523587
0.12907,3.737402476200966e-08,0.0013959817373917578
0.13569,4.136638544824501e-08,0.0015474170545939133
0.14264,2.1976120180535603e-08,0.00204881813370659
0.14995999999999998,1.330971720565328e-08,0.002491477381286422
0.15764,2.3883468566648177e-08,0.0019756317971697675
0.16573,1.4149679924419761e-08,0.002570656009138845
0.17421999999999999,1.5897095181923014e-08,0.002402598322496501
0.18316,3.168165092453984e-08,0.0016655059796074222
0.19255,3.4418800883988354e-08,0.0014515947199625
0.20242,2.046003617810072e-08,0.0022215583753295996
0.2128,1.5382274846978317e-08,0.0027658079304218003
0.22371,1.847906226091581e-08,0.0022810547647099683
0.23518,2.625918138864153e-08,0.001833845901360427
0.24724,1.6448594558969466e-08,0.0025404841695637202
0.27324,5.716536708535687e-08,0.0012807535673609234
0.28725,1.8114960030562683e-08,0.0022509739456154964
0.29452,9.718029146310022e-09,0.003361156306540009
0.29721,3.941949975818326e-09,0.004284053190470065
0.29849,1.953556473138626e-09,0.0073940641868904125
0.30196999999999996,5.453027891218262e-09,0.0036574402204074766
0.33372999999999997,5.463247368655625e-08,0.0011133687237220749
0.36883,3.844024810076073e-08,0.0016378546807325088
0.38774,2.6817052723079245e-08,0.0018481148341411677
0.40762,4.6415712659349807e-08,0.001271212410538189
0.45049,5.9568973825587155e-08,0.0009836229810999786
0.49787,4.7702575435441745e-08,0.0015972425353375573
0.5234,2.5322972662597527e-08,0.001859428147182362
0.55023,2.244657020830527e-08,0.001882956312962915
0.57844,3.86478825690067e-08,0.001216811240251761
0.6081,8.433257022537136e-08,0.0007803404507439476
0.63928,1.9131686602328958e-08,0.0020215395615150933
0.67206,2.563188408459021e-08,0.0015928884879331715
0.70651,1.3694335888520375e-08,0.0021678207423576246
0.74274,3.3767099897053805e-08,0.0012134611370462972
0.78082,2.5279045673303253e-08,0.0016340127565936146
0.82085,1.816479936386222e-08,0.0018377618358156377
0.8629399999999999,1.0154172335964379e-08,0.003261200740585087
0.90718,1.140159214494113e-08,0.002342439110830324
0.9616699999999999,9.692629754028045e-09,0.0027645448333468974
1.0026,5.429489884101846e-09,0.0037003699416480822
1.1079999999999999,1.4144085764305702e-08,0.0020932398655409846
1.1648,4.8898356443979375e-09,0.0036091203391728508
1.2246,4.022385304505545e-09,0.004424558170016725
1.2873999999999999,2.6847097582680663e-09,0.005683201761838447
1.3534,1.8781868283690528e-09,0.006464332627567547
1.4226999999999999,2.6149182609115373e-09,0.005204108885689895
1.4957,1.8783136431949868e-09,0.006247613823561909
1.5724,2.049239946183394e-09,0.005678550841937984
1.653,2.228619149817997e-09,0.005498171384478893
1.7377,1.8536505056386816e-09,0.006765974550928944
1.8268,1.7480179762237878e-09,0.005899889663390551
1.9204999999999999,1.9055304021532296e-09,0.005490000402021059
2.019,1.7930128989962716e-09,0.006280474594057047
2.1225,1.4151040141446266e-09,0.007814136829949678
2.2313,1.3501460444501151e-09,0.005857283700605001
2.3068999999999997,8.255381710726002e-10,0.010158194109500671
2.3457,3.678989294802402e-10,0.013393151409351755
2.3653,1.5568960074651914e-10,0.021875930526092057
2.3851,2.1700164966995763e-10,0.017628543440196574
2.4659999999999997,7.186498870053678e-10,0.010219906029603622
2.5924,1.0506276615416054e-09,0.008802082476014748
2.7253,1.0383891688980345e-09,0.008724287122843904
2.8649999999999998,8.740008672044576e-10,0.00933312529393676
3.0119,8.191745035933668e-10,0.00872822433012877
3.1664,8.458226183873716e-10,0.009050111000535202
3.3287,7.639675550206419e-10,0.01078009326361014
3.6788,1.2920943471228088e-09,0.007253810855084
4.0657,1.146473848463719e-09,0.008198400444357986
4.4933,1.0050057796649725e-09,0.00990556474002648
4.7237,4.671499200164086e-10,0.01292985473935418
4.9658,4.488214868134935e-10,0.012236182727673335
5.2204999999999995,4.183973005905113e-10,0.012448663691656639
5.488099999999999,3.838697693450199e-10,0.012034454718736742
5.7695,3.68983937966016e-10,0.013598962889205321
6.0653,3.659391034473151e-10,0.012498156737021662
6.3763,3.6347399802700805e-10,0.011789886798524298
6.5924,2.518361423862623e-10,0.014456170638878784
6.7032,1.221324863770753e-10,0.01916354532145828
7.0469,3.635963817472404e-10,0.01339747096144704
7.4082,3.7235943925460106e-10,0.01101036662856937
7.787999999999999,3.9720088742724063e-10,0.012304860021211431
8.1873,3.8836807727803507e-10,0.01198274958896834
8.607099999999999,4.279521370796902e-10,0.010875747540063992
9.048399999999999,4.00015054190027e-10,0.011218269809971647
9.5123,3.882782558595445e-10,0.011953340208888235
10.0,5.338503106953808e-10,0.009051753986803725
10.513,8.764961529035689e-10,0.007706553796059605
11.052,9.632834616185273e-10,0.007157126108424923
11.618,1.1551129464926866e-09,0.0060243785325270255
12.213999999999999,1.3963227583641636e-09,0.0052459595949771905
12.523,7.863143825361646e-10,0.007708842560751467
12.84,8.47218094231222e-10,0.007901072104302796
13.498999999999999,1.8070877047722942e-09,0.0047527477456227665
13.84,8.426479601512313e-10,0.006506479306686505
14.190999999999999,1.631808892125469e-10,0.014206818972606724
14.549999999999999,0.0,
14.918,0.0,
15.683,0.0,
16.487,0.0,
16.904999999999998,0.0,
17.332,0.0,
19.64,0.0,
