Energy,Value,Error
1e-07,0.0,
4.1399e-07,0.0,
5.3158e-07,1.3732426904583345e-13,1.0
6.825599999999999e-07,1.1543021657101477e-12,0.36874876470167917
8.7643e-07,1.5071851947781166e-11,0.1175714779523781
1.1252999999999998e-06,1.0293726269020815e-10,0.04604716063054881
1.445e-06,1.4759891456490485e-10,0.04431700964273505
1.8553999999999998e-06,1.9177327536364978e-10,0.043943694765889954
2.3824e-06,2.3628088506279795e-10,0.03230036301152136
3.059e-06,3.1489481087004176e-10,0.026886194616572722
3.9279e-06,3.974870367974999e-10,0.025466584478242776
5.043499999999999e-06,5.284119143686892e-10,0.021910877260080026
6.4759e-06,7.18810793971832e-10,0.017774036035719802
8.3153e-06,9.017596269237393e-10,0.016299221074629087
1.0677e-05,1.1610585595553163e-09,0.013158487751296077
1.3710000000000001e-05,1.5047837639789952e-09,0.013149832263336806
1.7604e-05,1.9198924593490786e-09,0.011411315257239001
2.2603e-05,2.4200888328083138e-09,0.00939224584069273
2.9023e-05,3.149909609234816e-09,0.009007055825570789
3.7266e-05,4.0227334820426435e-09,0.006983985065918918
4.7851e-05,5.176995353836319e-09,0.0076430986086225275
6.1442e-05,6.622021336104864e-09,0.0062741744534867
7.889299999999999e-05,8.49460288153734e-09,0.0050020884656472794
0.0001013,1.0913256091538507e-08,0.005163917293464934
0.00013006999999999998,1.4026194848322851e-08,0.00420424755176694
0.00016702,1.7811071530982633e-08,0.003481357567243607
0.00021444999999999998,2.284400848705445e-08,0.0033741345447195403
0.00027536,2.9262044408948283e-08,0.0027865313206930573
0.00035358,3.749208857486962e-08,0.0024199992525754097
0.000454,4.7838823184576634e-08,0.002246359474224342
0.00058295,6.032653534721748e-08,0.0018438677409111602
0.0007485199999999999,7.438092183057216e-08,0.001776766950945808
0.00096112,1.0086482356239625e-07,0.001472524871630298
0.0012341,1.2881217869117262e-07,0.0015547659748612452
0.0015845999999999998,1.6499745799024678e-07,0.0012408571947713028
0.0020347,2.0614021413602153e-07,0.0010501788754209726
0.0022486999999999997,2.5175382097163033e-07,0.0015232288533471388
0.0024852,2.7768804565509385e-07,0.0015088858392601088
0.0026125999999999996,2.9927789021858864e-07,0.0018636405318573866
0.0027465,3.1400140231584094e-07,0.0016130413333027987
0.0030354,3.390491960864717e-07,0.0013518538285140246
0.0033545999999999997,3.745396576878862e-07,0.0012071321094312536
0.0037074,4.1440410283849105e-07,0.0011632874384060064
0.004307399999999999,4.7249602743125287e-07,0.0009666157400641993
0.0055308,5.633611230638108e-07,0.0006918029181452966
0.0071017,6.941069022112736e-07,0.0005357030330308195
0.009118799999999998,9.829987818904672e-07,0.000490389307881474
0.010595,1.1401612045916152e-06,0.0005002765508544996
0.011708999999999999,1.3013464233012355e-06,0.0006469167161540383
0.015033999999999999,1.5403377684853758e-06,0.00039774943959249677
0.019303999999999998,1.9421604058409123e-06,0.00032988915908771624
0.021875,2.296386108943295e-06,0.00044517388930675854
0.023579,2.486737890708197e-06,0.0005454728243719716
0.024176,2.466184795676993e-06,0.0010101420678803705
0.024787999999999998,2.3290223559437175e-06,0.001005542701558346
0.026057999999999998,2.4730526713937564e-06,0.0006017033678475662
0.027,2.4025963126191805e-06,0.0008014460447988253
0.028501,2.28961452840747e-06,0.000627897395199161
0.031827999999999995,5.490842224094111e-06,0.00028065760831909173
0.034307,2.9098604794528956e-06,0.0005277558322421158
0.040868,3.947839278160459e-06,0.00023652467848335736
0.046308999999999996,4.1612674385063945e-06,0.00027609075940777976
0.052475,7.559753345383253e-06,0.00022828090430536435
0.056561999999999994,5.164270739593133e-06,0.0004262556732608157
0.06738,8.445733592469444e-06,0.00019866903881146045
0.07202399999999999,5.524928789215294e-06,0.00042656674387856006
0.079499,1.060368726241188e-05,0.0002556223691481726
0.08250299999999999,5.406721624080162e-06,0.000621877265786922
0.086517,8.486259935514199e-06,0.0003963032747208236
0.098036,7.6108172798369725e-06,0.00026571621136369373
0.11109,2.671960041257053e-06,0.00042479400750343433
0.11678999999999999,3.4073545667826507e-06,0.0005299529041128095
0.12276999999999999,1.5921277430017302e-06,0.0009095328793776128
0.12907,2.321270242010955e-06,0.0007507775901545308
0.13569,6.439425014858076e-06,0.0003783794881701176
0.14264,3.288232780104391e-06,0.0006101689681174558
0.14995999999999998,3.794052541747583e-06,0.0005864062143866983
0.15764,4.039735666792756e-06,0.000590233593378522
0.16573,4.29425928073676e-06,0.0005161535790494311
0.17421999999999999,4.572659358853105e-06,0.0004934100701950995
0.18316,4.864051928384606e-06,0.0005814568212419275
0.19255,5.169910418144299e-06,0.0005149625470091413
0.20242,5.511063141159414e-06,0.0005188371208223823
0.2128,5.846483684145058e-06,0.0005813995743310286
0.22371,6.194932840272096e-06,0.0005196396078571932
0.23518,6.586766461085499e-06,0.0004573775245086302
0.24724,6.996828549684638e-06,0.0004386987527497612
0.27324,7.66193166393896e-06,0.0003424180561193124
0.28725,8.374980649595797e-06,0.0003749922094622349
0.29452,8.775480061946016e-06,0.0005633420910384151
0.29721,8.960875278703582e-06,0.0008943170556217103
0.29849,9.003703586208978e-06,0.0012928456676699243
0.30196999999999996,9.112488512451723e-06,0.0007197399686337534
0.33372999999999997,9.755732353064579e-06,0.00029337438691802366
0.36883,1.0994810385938634e-05,0.0002748346820566156
0.38774,1.1991208288247445e-05,0.0003060224454072564
0.40762,1.2700745908100065e-05,0.00028554937273451205
0.45049,1.382832967970239e-05,0.0002251878418020939
0.49787,1.5419924345183402e-05,0.00021287632168959098
0.5234,1.6679518248585994e-05,0.00027912023331154727
0.55023,1.7555722335201795e-05,0.00027323513768210913
0.57844,1.843931414655624e-05,0.0002823512693275422
0.6081,1.932963912823091e-05,0.00025607369558615297
0.63928,2.0190579550018617e-05,0.0002624315151238701
0.67206,2.0995189864614375e-05,0.00023762870260891932
0.70651,2.1680211522564657e-05,0.0002889380832730168
0.74274,2.2223156623564504e-05,0.00023059915271214022
0.78082,2.2512379409446437e-05,0.00022624227572091854
0.82085,2.2412594943544647e-05,0.00024405919011662053
0.8629399999999999,2.1793810692368223e-05,0.0002448854652901331
0.90718,2.039853827316456e-05,0.00022662975214909756
0.9616699999999999,1.8096245904717627e-05,0.00023564880785485826
1.0026,1.5772761445581105e-05,0.000333757764859539
1.1079999999999999,1.5126892373646613e-05,0.00020076757365034494
1.1648,1.5243502642840276e-05,0.0003617065786036963
1.2246,1.5128211010393627e-05,0.00029862233992875383
1.2873999999999999,1.4847580282074039e-05,0.0002862209360897724
1.3534,1.439435129797511e-05,0.0003084987948744008
1.4226999999999999,1.3571952631242944e-05,0.0003329513965327545
1.4957,1.225350888059021e-05,0.0003510731209988443
1.5724,1.0683185795791246e-05,0.00034368463712491394
1.653,9.228740014437495e-06,0.0004146411233532172
1.7377,7.98257821325145e-06,0.00043429529124394293
1.8268,6.877542929772242e-06,0.0005004875290101696
1.9204999999999999,5.923038894104202e-06,0.0005182446735745563
2.019,5.142386917038606e-06,0.0005453876110524727
2.1225,4.5709526673058605e-06,0.00054289998214898
2.2313,4.2448345463399255e-06,0.0005501466207337253
2.3068999999999997,4.01099366250435e-06,0.0007310430192941414
2.3457,3.875017120935131e-06,0.0009057181175134826
2.3653,3.815466701788575e-06,0.001431189888487391
2.3851,3.758900701187862e-06,0.001323701137073431
2.4659999999999997,3.655629510148779e-06,0.0008048729553684653
2.5924,3.4403273915560257e-06,0.000592553944194229
2.7253,3.2147494841647643e-06,0.0006212754760786523
2.8649999999999998,2.9722003612024574e-06,0.0006881705464166841
3.0119,2.729102944244357e-06,0.0006167141161381065
3.1664,2.489451459792306e-06,0.000744373011209281
3.3287,2.269123703281506e-06,0.0007146368530100242
3.6788,1.9815182455269024e-06,0.000563976621027038
4.0657,1.7611887273276364e-06,0.0005801965835401359
4.4933,1.6133542199402186e-06,0.000589186685138937
4.7237,1.5454819651620732e-06,0.00073271855881085
4.9658,1.5242833412626058e-06,0.0007873936043062423
5.2204999999999995,1.5204276239310546e-06,0.0008152110169236763
5.488099999999999,1.5317179033571865e-06,0.0007431010075939193
5.7695,1.5395107275489727e-06,0.0007978051651418241
6.0653,1.5564244921807405e-06,0.0008054692233094204
6.3763,1.580036538457194e-06,0.0007114948422067178
6.5924,1.6015179020507417e-06,0.0008635149543398263
6.7032,1.6143968581860717e-06,0.0013137441291048908
7.0469,1.6392870736138777e-06,0.0007444389599657627
7.4082,1.6650404976575102e-06,0.0006535829545441924
7.787999999999999,1.692781022996552e-06,0.0006882685449091512
8.1873,1.7308345684830216e-06,0.0006641934294590173
8.607099999999999,1.822954607696366e-06,0.0006452323309909686
9.048399999999999,1.944048895361946e-06,0.000644717962472949
9.5123,2.0078306468657978e-06,0.0006282579572883208
10.0,2.2848629050033893e-06,0.0005878625595183485
10.513,4.464015662298297e-06,0.0004309586456882086
11.052,4.700033733652046e-06,0.0004323685632357809
11.618,4.975225471090354e-06,0.000413143400504335
12.213999999999999,5.279467646118302e-06,0.0003702181371268396
12.523,5.428443648251342e-06,0.0005059214655585107
12.84,5.44513797928831e-06,0.0005300158798896365
13.498999999999999,5.707543655911065e-06,0.0003419988084558669
13.84,5.797851185789048e-06,0.0005305034910168202
14.190999999999999,2.166622005763503e-06,0.000788159811902544
14.549999999999999,0.0,
14.918,0.0,
15.683,0.0,
16.487,0.0,
16.904999999999998,0.0,
17.332,0.0,
19.64,0.0,
