Energy,Value,Error
1e-07,0.0,
4.1399e-07,0.0,
5.3158e-07,0.0,
6.825599999999999e-07,3.260950348394925e-14,1.0
8.7643e-07,1.0069752545150708e-13,0.7037311323541814
1.1252999999999998e-06,1.106151866309577e-11,0.04661335884875484
1.445e-06,2.6966657486063694e-11,0.03143735910801725
1.8553999999999998e-06,3.4122142431867996e-11,0.03315145088361777
2.3824e-06,4.084718939332698e-11,0.022133028199766754
3.059e-06,5.4897615745487666e-11,0.02506620206403056
3.9279e-06,6.739447409203848e-11,0.021496584417843058
5.043499999999999e-06,8.778021613553829e-11,0.018930697227956567
6.4759e-06,1.1861145456682486e-10,0.016376870887530915
8.3153e-06,1.4620223275930728e-10,0.013264729263816208
1.0677e-05,1.947201521542749e-10,0.011707859880412345
1.3710000000000001e-05,2.4752912615361597e-10,0.011290054264329174
1.7604e-05,3.1198248150405845e-10,0.009238662767719239
2.2603e-05,3.941348507477093e-10,0.007412006612406724
2.9023e-05,5.137335072199485e-10,0.009161873873322474
3.7266e-05,6.602413640828481e-10,0.006907606235175734
4.7851e-05,8.447252122412865e-10,0.005960828942671817
6.1442e-05,1.0925302952856994e-09,0.006119888227987154
7.889299999999999e-05,1.4046273233956742e-09,0.0047496193439413754
0.0001013,1.7885229576781192e-09,0.0044617418500891666
0.00013006999999999998,2.3180712793688016e-09,0.004242997221987678
0.00016702,2.972612488516575e-09,0.003153041036717686
0.00021444999999999998,3.802150484279955e-09,0.003192275107705565
0.00027536,4.903168196338359e-09,0.002520791920172022
0.00035358,6.28571174441904e-09,0.0020659782781532765
0.000454,8.075766281963903e-09,0.0019111809165336762
0.00058295,1.0351264692056582e-08,0.0016788769755907158
0.0007485199999999999,1.3290863727182708e-08,0.0014861493121669722
0.00096112,1.7070865803254534e-08,0.0012901975000803733
0.0012341,2.192934356084815e-08,0.0012509699723508778
0.0015845999999999998,2.8067128040987743e-08,0.0010682857929107988
0.0020347,3.615067136342324e-08,0.001056693012115228
0.0022486999999999997,1.7155107155780064e-08,0.0013180890011041946
0.0024852,1.8987932815614125e-08,0.0012875942455863169
0.0026125999999999996,1.0197508305275184e-08,0.001792563101411585
0.0027465,1.073803830573711e-08,0.0016575803521194279
0.0030354,2.3151520155291457e-08,0.0013328994089729562
0.0033545999999999997,2.558543522810311e-08,0.0011697805939044983
0.0037074,2.8313511480970623e-08,0.0010586220522024
0.004307399999999999,4.816299168114068e-08,0.0007789396898401378
0.0055308,9.810822896559421e-08,0.0006632164118965693
0.0071017,1.2596131045160929e-07,0.0004724810436323053
0.009118799999999998,1.6170263472950315e-07,0.0004928701188660845
0.010595,1.1836977574191237e-07,0.0005157185567852431
0.011708999999999999,8.926880035923851e-08,0.0005552206307513967
0.015033999999999999,2.6647072695209803e-07,0.0003371559464903315
0.019303999999999998,3.4200288201881476e-07,0.0003093999992938445
0.021875,2.0581511310748722e-07,0.0003692966465482468
0.023579,1.3647613819482958e-07,0.00045272354146597474
0.024176,4.7835582341543535e-08,0.000850183699965204
0.024787999999999998,4.895420170203085e-08,0.000780929762228898
0.026057999999999998,1.0169183492749904e-07,0.0005840027248827709
0.027,7.536903267139508e-08,0.0006954428546821395
0.028501,1.2019120296211557e-07,0.0005194534651925427
0.031827999999999995,2.663313603304718e-07,0.0003405559832511791
0.034307,1.9838657286268736e-07,0.0004042224655673923
0.040868,5.250581491779092e-07,0.0002221966001664808
0.046308999999999996,4.352838875084155e-07,0.00025279803403204773
0.052475,4.929951282413743e-07,0.00026531894538994917
0.056561999999999994,3.2670110645941216e-07,0.00031924131948468903
0.06738,8.642313876480507e-07,0.00018675511099060842
0.07202399999999999,3.710221872293444e-07,0.0002825201246610741
0.079499,5.96642109309036e-07,0.00023170858172034083
0.08250299999999999,2.3921009279954113e-07,0.0003173086562798276
0.086517,3.192012565419558e-07,0.0003371724314994079
0.098036,9.117104336459665e-07,0.00019590852994504635
0.11109,2.5337212136186324e-07,0.0003577264298020204
0.11678999999999999,5.0540001037856885e-08,0.000821833798645856
0.12276999999999999,5.303388772920557e-08,0.0007557044929418861
0.12907,5.591097626336729e-08,0.0007765365564407747
0.13569,5.882898762003753e-08,0.0006793753706780132
0.14264,6.16294124165326e-08,0.0007754490392773234
0.14995999999999998,6.494867282171034e-08,0.0007064852539542508
0.15764,6.809274905980537e-08,0.0006756472537599142
0.16573,7.179809832302482e-08,0.0007057460959059693
0.17421999999999999,7.525376280753181e-08,0.0007130642831587032
0.18316,7.929597875347006e-08,0.0006063876737202621
0.19255,8.322315079831233e-08,0.0006401345928366724
0.20242,8.747916894697297e-08,0.0004935601443400197
0.2128,9.194804783821774e-08,0.00063124565940413
0.22371,9.673321623153213e-08,0.0005639220705532499
0.23518,1.0172459162518528e-07,0.0005136980288276893
0.24724,1.0700956663392593e-07,0.0005878110110089286
0.27324,2.304511889318965e-07,0.0003683987430178308
0.28725,1.2424064120662215e-07,0.00045949615193043876
0.29452,6.453556913228139e-08,0.0007994304202367747
0.29721,2.3834337737742885e-08,0.0011148712401303329
0.29849,1.1359809241315634e-08,0.0016077705063771938
0.30196999999999996,3.079434689791622e-08,0.0009456659191664916
0.33372999999999997,2.8163997497844755e-07,0.0003018293540071008
0.36883,3.112630375756776e-07,0.0003517176911506058
0.38774,1.6765298496655975e-07,0.00044408091650976323
0.40762,1.761776467413094e-07,0.0004490301392521698
0.45049,3.7923307201102563e-07,0.00029208350068126923
0.49787,4.192464529178025e-07,0.0002968216766212976
0.5234,2.2597179147604397e-07,0.00033999242818106375
0.55023,2.3743367000380405e-07,0.0003839888200552639
0.57844,2.4991546011970926e-07,0.00034396591284335175
0.6081,2.630562640012806e-07,0.00033499744279317053
0.63928,2.766724523773344e-07,0.0002889115710086688
0.67206,2.8986493754072613e-07,0.00037216776849559194
0.70651,3.046644908149236e-07,0.0003292972352907735
0.74274,3.2040606927318097e-07,0.0002950415528479102
0.78082,3.366876431419983e-07,0.0002813860533422345
0.82085,3.5389876978392666e-07,0.0002686604520893558
0.8629399999999999,3.7208573057712417e-07,0.0003139513463099571
0.90718,3.907816231890981e-07,0.00029207320312363684
0.9616699999999999,4.813912337525664e-07,0.00022609646544002779
1.0026,3.4056494093019856e-07,0.00030966511037316534
1.1079999999999999,9.351211896334193e-08,0.0005431334370757257
1.1648,5.0341491916011666e-08,0.0007681560885018443
1.2246,5.316005899662221e-08,0.0006617105993256619
1.2873999999999999,5.583211850479498e-08,0.0007713135827663848
1.3534,5.8631205190713875e-08,0.0006846884730115169
1.4226999999999999,6.15011178072803e-08,0.0007292681545754305
1.4957,6.476429458063942e-08,0.0006525195202177382
1.5724,6.810256179874028e-08,0.000655148797665199
1.653,7.143476260817412e-08,0.0007198280169377247
1.7377,7.513851238779724e-08,0.0007309756810228686
1.8268,7.897663787890138e-08,0.0006508168249801178
1.9204999999999999,8.311275918263403e-08,0.000695817199959118
2.019,8.739561051744316e-08,0.0005919359437696596
2.1225,9.169572442223761e-08,0.000591960027088269
2.2313,9.649411525925991e-08,0.0005710220829013412
2.3068999999999997,6.695514810693852e-08,0.0006879938104422466
2.3457,3.438865245920047e-08,0.0009662535245353956
2.3653,1.7336227799786442e-08,0.0014043726220812562
2.3851,1.7552292830151486e-08,0.0014952657066135686
2.4659999999999997,7.16994416397198e-08,0.0006909921962340173
2.5924,1.1196965387131802e-07,0.0005416392775834465
2.7253,1.1784838909010306e-07,0.0004912759244094734
2.8649999999999998,1.2381870377202854e-07,0.0005335816060308113
3.0119,1.302304204084604e-07,0.0005144142204627103
3.1664,1.3702150892052236e-07,0.0005038730664228154
3.3287,1.43796613667133e-07,0.00045239684680954104
3.6788,3.10192785379445e-07,0.00033781116967439024
4.0657,3.4250098133775546e-07,0.0002847891340683637
4.4933,3.784284540108287e-07,0.0002744278378859095
4.7237,2.0391589709716115e-07,0.00035841251571189713
4.9658,2.1443037364823955e-07,0.0004137464870222307
5.2204999999999995,2.255012119059086e-07,0.00032374816296305587
5.488099999999999,2.370246554066511e-07,0.00034867705296586594
5.7695,2.4919268374692224e-07,0.00031811895802613075
6.0653,2.617082253374425e-07,0.0003555796110982012
6.3763,2.751175429388437e-07,0.00031346872398674725
6.5924,1.9117586485257384e-07,0.0003644791635843529
6.7032,9.797552062018608e-08,0.0006107229707551631
7.0469,3.039684282212724e-07,0.00028558506139912584
7.4082,3.1932682676709264e-07,0.0003616346235255636
7.787999999999999,3.354974162162256e-07,0.0002556320541580191
8.1873,3.530751384240973e-07,0.0003108537577632096
8.607099999999999,3.711622207049372e-07,0.0002761795781886468
9.048399999999999,3.903384529934211e-07,0.00027136534487952856
9.5123,4.104758490646862e-07,0.0002798107676838161
10.0,4.315624112415131e-07,0.0003053312638248152
10.513,1.0192089523708228e-06,0.00016545776136605466
11.052,1.0709662496266012e-06,0.00017024054846499623
11.618,1.1242404193791596e-06,0.0001502538689148101
12.213999999999999,1.1839117382907564e-06,0.00017243314000637284
12.523,6.135176011337288e-07,0.0002145986372697455
12.84,6.295541549059853e-07,0.00022627838537617154
13.498999999999999,1.308111521691124e-06,0.00016111248165034836
13.84,6.766370139006991e-07,0.0002135238842676233
14.190999999999999,3.1720727556216463e-07,0.00032491621585156586
14.549999999999999,0.0,
14.918,0.0,
15.683,0.0,
16.487,0.0,
16.904999999999998,0.0,
17.332,0.0,
19.64,0.0,
