Energy,Value,Error
1e-07,0.0,
4.1399e-07,0.0,
5.3158e-07,0.0,
6.825599999999999e-07,0.0,
8.7643e-07,6.846732655519591e-14,1.0
1.1252999999999998e-06,1.6607213158033245e-13,0.4960437488368418
1.445e-06,2.9168281785224846e-13,0.37569186314269737
1.8553999999999998e-06,2.8546342317686077e-12,0.3940627445845279
2.3824e-06,6.526943943296127e-12,0.09965735678641835
3.059e-06,1.7688760035311417e-11,0.06082122571007075
3.9279e-06,4.809519299878061e-11,0.04125069080550139
5.043499999999999e-06,1.179418488178177e-10,0.02411403070783765
6.4759e-06,2.635204568829575e-10,0.02179106251887881
8.3153e-06,5.361466746853121e-10,0.012421299392404786
1.0677e-05,1.0176453590643753e-09,0.010205548787716552
1.3710000000000001e-05,1.7672096835705313e-09,0.007504454732724599
1.7604e-05,2.896801247147562e-09,0.006126841786332696
2.2603e-05,4.485502960172318e-09,0.004421293941410866
2.9023e-05,6.545941183514924e-09,0.003910164522931901
3.7266e-05,9.19167589727597e-09,0.003436226081474394
4.7851e-05,1.2379006312682348e-08,0.0026770633345110286
6.1442e-05,1.6051912558291197e-08,0.0022229156571354795
7.889299999999999e-05,2.0128905488005212e-08,0.00212191079027389
0.0001013,2.418552333137178e-08,0.001900319565269489
0.00013006999999999998,2.8296571945453875e-08,0.0016988226050057766
0.00016702,3.20109653762342e-08,0.0016209630647761165
0.00021444999999999998,3.5070511777350766e-08,0.0015189156701540642
0.00027536,3.728294717018304e-08,0.0014721657279393183
0.00035358,3.802529013041651e-08,0.0015429656809019495
0.000454,3.7470730722353726e-08,0.00156486997515923
0.00058295,3.5050270046356465e-08,0.0014993150568385115
0.0007485199999999999,3.104486276968637e-08,0.00204244854484206
0.00096112,2.5529904064857475e-08,0.002253765989362202
0.0012341,1.9288419493731784e-08,0.002543001481497
0.0015845999999999998,1.2990523286906651e-08,0.0029109792187002694
0.0020347,7.46615719221472e-09,0.003389204887826814
0.0022486999999999997,1.7473034277966923e-09,0.007257383911607687
0.0024852,1.2023117109047467e-09,0.008974445094615355
0.0026125999999999996,4.366321654809487e-10,0.014013043615500974
0.0027465,3.5583825671680805e-10,0.01707559225917465
0.0030354,4.687036363593228e-10,0.01601891685259545
0.0033545999999999997,2.6585150742444187e-10,0.017757130856171633
0.0037074,1.3172060991025792e-10,0.025914298748088656
0.004307399999999999,9.215473709739964e-11,0.03019748062691151
0.0055308,1.5645209554916357e-10,0.02743812387123803
0.0071017,9.88538727128232e-10,0.010452516220530847
0.009118799999999998,4.638722257139996e-09,0.004696910542345049
0.010595,7.096309303049813e-09,0.0036095831043215696
0.011708999999999999,7.673551385306318e-09,0.003547856970143533
0.015033999999999999,3.503713184557412e-08,0.001763153521002201
0.019303999999999998,6.98490482980392e-08,0.0012542359077749139
0.021875,5.399662575995004e-08,0.001206621558590422
0.023579,4.011039592307707e-08,0.0014816737345406453
0.024176,1.4808815486273803e-08,0.0025355351721812595
0.024787999999999998,1.5518100114978386e-08,0.00230303031852935
0.026057999999999998,3.381683543825721e-08,0.0016988396066783462
0.027,2.6213353043095724e-08,0.0020002542704604673
0.028501,4.376850427619096e-08,0.0014632974010508931
0.031827999999999995,1.0736659359889102e-07,0.000811986121535988
0.034307,9.056223870518603e-08,0.0009907104951891752
0.040868,3.5841111307612926e-07,0.0004705161453737515
0.046308999999999996,2.030382866005097e-06,0.00015465589351080732
0.052475,1.82059801342107e-07,0.000636137084142812
0.056561999999999994,1.4772201913758525e-07,0.0007410952811129552
0.06738,4.773288351490134e-07,0.000410319425651844
0.07202399999999999,2.7325175554131827e-07,0.0005395809344448018
0.079499,6.646679684407426e-07,0.00038627558837418493
0.08250299999999999,3.5083451807559483e-07,0.0005283416205979898
0.086517,7.89424912455238e-07,0.0003356754925270785
0.098036,6.070692250143769e-06,9.830313538437214e-05
0.11109,1.4853669489224974e-06,0.0001626602019558239
0.11678999999999999,3.0024619744619656e-08,0.0019002541557228004
0.12276999999999999,5.027390725848005e-08,0.0014747879968274446
0.12907,6.988990935334503e-08,0.0012458044153536361
0.13569,8.816110846486072e-08,0.0009787849092795762
0.14264,1.01797517753565e-07,0.000984960083499211
0.14995999999999998,2.3448955547836146e-07,0.0005029213423123473
0.15764,1.2212808578513767e-07,0.000887584948537027
0.16573,1.4937395708723105e-07,0.0007405313317392091
0.17421999999999999,1.7272495609071718e-07,0.0007171653944068214
0.18316,2.0122710035396056e-07,0.0006091854534901441
0.19255,2.2853910145395879e-07,0.0006754075996434266
0.20242,2.9687824748558757e-07,0.0005441943975490133
0.2128,3.936258071364206e-07,0.0005000091581807825
0.22371,1.1977592115275515e-06,0.000232316553877156
0.23518,1.6755182616094217e-06,0.0001838476883888901
0.24724,3.222626573826288e-07,0.00048252769302003297
0.27324,5.82736303684814e-07,0.0003895053845159849
0.28725,1.0264678395815707e-06,0.00020690666755460106
0.29452,4.5303394100296025e-08,0.001530724277817226
0.29721,2.564261937251338e-08,0.0017627966441622627
0.29849,1.4817891344472364e-08,0.002596702179122019
0.30196999999999996,3.986776974063553e-08,0.0014096957950431904
0.33372999999999997,7.98810450472571e-07,0.0002995863860356112
0.36883,8.296020491544464e-07,0.00024212870150088398
0.38774,4.1784217641508706e-07,0.00036830972316082814
0.40762,1.3097303446930647e-07,0.0007248037114656787
0.45049,3.2869267946994673e-07,0.00045727666056152443
0.49787,3.587041067242318e-07,0.0004770538258260536
0.5234,5.728955480589874e-08,0.001283764548223497
0.55023,8.207223339593358e-08,0.0010512638437054744
0.57844,1.6850306023556202e-07,0.0006523455254726253
0.6081,3.0118421738372286e-07,0.00041012873595901823
0.63928,8.185879062614444e-07,0.00023090448186081447
0.67206,7.819405244854071e-07,0.0002580966134928965
0.70651,7.536510787100531e-07,0.0002497380758299856
0.74274,7.240671140622708e-07,0.0002727626579377423
0.78082,6.660856564585148e-07,0.0002562717513711532
0.82085,5.949859160457327e-07,0.0002968450041153482
0.8629399999999999,5.366388991155621e-07,0.00028751807210637703
0.90718,4.4957880633091427e-07,0.00029798517479203064
0.9616699999999999,4.590186071445389e-07,0.00030181320107418975
1.0026,2.475114264422288e-07,0.0004410901469454307
1.1079999999999999,8.415926929536363e-08,0.0008751718663068047
1.1648,2.1752283196351322e-08,0.0017332639985484643
1.2246,1.5211279267556002e-08,0.002161334143246275
1.2873999999999999,8.166914111194224e-09,0.003184650273128042
1.3534,5.3843821047125445e-09,0.0034531735892014575
1.4226999999999999,7.446858821745963e-09,0.0029692691308294316
1.4957,4.927194423837266e-09,0.0038377574474347527
1.5724,5.753519459700232e-09,0.003441247640415715
1.653,6.408531639312979e-09,0.003813915530618387
1.7377,5.374282045264944e-09,0.0033489648753957436
1.8268,4.802158726608505e-09,0.0032636730466228466
1.9204999999999999,5.218648379823382e-09,0.0036860961609147046
2.019,4.533627953028795e-09,0.003624658654806222
2.1225,3.3594041767867617e-09,0.004481442520530951
2.2313,3.0873447727550133e-09,0.004553768541319323
2.3068999999999997,1.6971545513367767e-09,0.006484702720797164
2.3457,7.309232402295441e-10,0.009451122768986292
2.3653,3.050634199047073e-10,0.015685875505166178
2.3851,4.263594243066192e-10,0.012621002135350374
2.4659999999999997,1.2596551829619435e-09,0.008434184569883183
2.5924,1.6659624887048687e-09,0.006176694078548446
2.7253,1.5898714070322791e-09,0.005661489308329043
2.8649999999999998,1.2281691575004973e-09,0.007265986122523476
3.0119,1.0984843704306506e-09,0.007311538952320616
3.1664,1.1364513103295616e-09,0.007988069523636978
3.3287,9.447870860567172e-10,0.008233358844782369
3.6788,1.459890657775848e-09,0.006532944042935856
4.0657,1.151879615376694e-09,0.007449971884544074
4.4933,9.527598929831893e-10,0.009071799417374436
4.7237,4.1404232060641174e-10,0.01368067622834118
4.9658,3.768919810488118e-10,0.012556518531887606
5.2204999999999995,3.3974552496991886e-10,0.012713407647247656
5.488099999999999,3.249038938886724e-10,0.012942832942672925
5.7695,3.0372074816799537e-10,0.013703187242982215
6.0653,2.9722107065488457e-10,0.013372417484941591
6.3763,3.052636027249832e-10,0.013790329543798373
6.5924,2.14072261411697e-10,0.01686568110270004
6.7032,1.0747224832746602e-10,0.024451876674054098
7.0469,3.2797509581656045e-10,0.01533702142009716
7.4082,3.4925562800359025e-10,0.012326563083148117
7.787999999999999,3.7327369881003543e-10,0.012911219580846333
8.1873,3.679257659778347e-10,0.012158597397120946
8.607099999999999,4.150305906840023e-10,0.010735209160660923
9.048399999999999,3.7737060009515e-10,0.01052913957714626
9.5123,3.8004924984332673e-10,0.01030837485499263
10.0,5.533167870122351e-10,0.009281511531306236
10.513,9.199665842736763e-10,0.007748094151600527
11.052,1.0561482275130082e-09,0.006514159629171551
11.618,1.2106026584866197e-09,0.0050757048835001276
12.213999999999999,1.4286141755564684e-09,0.005158126016333992
12.523,8.193897214083799e-10,0.006798937226366851
12.84,8.681484385531492e-10,0.006323466102443531
13.498999999999999,1.8778330360773753e-09,0.004230288507155501
13.84,8.812213013465159e-10,0.006319300848559577
14.190999999999999,1.781385450384546e-10,0.014157881678263916
14.549999999999999,0.0,
14.918,0.0,
15.683,0.0,
16.487,0.0,
16.904999999999998,0.0,
17.332,0.0,
19.64,0.0,
