Energy,Value,Error
1e-07,0.0,
4.1399e-07,0.0,
5.3158e-07,0.0,
6.825599999999999e-07,0.0,
8.7643e-07,0.0,
1.1252999999999998e-06,5.760327678825418e-13,0.8072052143327889
1.445e-06,6.242609831818269e-13,0.505990195987351
1.8553999999999998e-06,2.17026914520566e-12,0.33938389753359854
2.3824e-06,3.823173681096766e-12,0.2080112680175671
3.059e-06,9.88030994987e-12,0.17890044066823776
3.9279e-06,1.8689280005283468e-11,0.11079327317474098
5.043499999999999e-06,4.092039208535061e-11,0.07964162728553797
6.4759e-06,7.302908718521675e-11,0.06509562087649995
8.3153e-06,1.4554407679674005e-10,0.05170445035760078
1.0677e-05,2.39915832505564e-10,0.0329117246622437
1.3710000000000001e-05,3.8895073933367404e-10,0.02381213620977051
1.7604e-05,6.742357062010775e-10,0.021226266665965728
2.2603e-05,1.0492488748241066e-09,0.017742330591545966
2.9023e-05,1.5470633227768481e-09,0.014599210566201944
3.7266e-05,2.2101080595722856e-09,0.01222047007842476
4.7851e-05,3.0931752271013183e-09,0.010455240180575465
6.1442e-05,4.330391125384722e-09,0.007922447603350449
7.889299999999999e-05,5.812717317136107e-09,0.007858000681487051
0.0001013,7.642057240973149e-09,0.0068713648504899
0.00013006999999999998,1.0174116516908417e-08,0.0056817138954286285
0.00016702,1.327501163402211e-08,0.004623877324787507
0.00021444999999999998,1.7109479512565165e-08,0.004211103511458106
0.00027536,2.216609174832674e-08,0.003765356369392728
0.00035358,2.812416647895843e-08,0.002768592960145278
0.000454,3.509449471067803e-08,0.00232565141005151
0.00058295,4.328381545935176e-08,0.0022610903893065274
0.0007485199999999999,5.21170170325435e-08,0.001758437396014432
0.00096112,6.106672929909122e-08,0.0015665462986316292
0.0012341,7.445766417908838e-08,0.0015180733431214408
0.0015845999999999998,5.77876516836814e-07,0.0005525907102482172
0.0020347,3.9522274044898605e-08,0.002357096353046433
0.0022486999999999997,8.453188323429027e-09,0.009750010241819212
0.0024852,2.1685805946708274e-08,0.007194040454958212
0.0026125999999999996,6.185277951269619e-08,0.004941415882981968
0.0027465,9.150525946290305e-08,0.003868264021973433
0.0030354,1.3632603356861752e-07,0.002100740298412283
0.0033545999999999997,1.9464335109388172e-07,0.0018656537751034962
0.0037074,2.511482636529788e-07,0.0017675888702199806
0.004307399999999999,3.1866955911873043e-07,0.0010416462511518485
0.0055308,4.3081427095277846e-07,0.0007390095355559921
0.0071017,7.280805978098866e-07,0.0005875363622386889
0.009118799999999998,9.27277038698979e-07,0.0005190346044243619
0.010595,3.328279198568932e-06,0.00029951315901201656
0.011708999999999999,3.7660703700925884e-07,0.001467022510324095
0.015033999999999999,1.5239995204178872e-06,0.0004101548253199852
0.019303999999999998,2.5455402543289293e-06,0.00028079988468099565
0.021875,4.021292175056976e-06,0.00032287426086236796
0.023579,5.052478836741116e-06,0.0004148062577929282
0.024176,5.770469764647664e-06,0.0006472278038944958
0.024787999999999998,6.185798366758846e-06,0.0005368990647027164
0.026057999999999998,6.905344791869698e-06,0.0003662976917622999
0.027,7.84717864445481e-06,0.00044014375154550323
0.028501,9.194350713709773e-06,0.0003074941362411757
0.031827999999999995,6.085845701426447e-06,0.00030872677152501575
0.034307,4.147185345090849e-06,0.0004905097939804945
0.040868,4.208909675334056e-06,0.00026151476230393804
0.046308999999999996,4.275082282195975e-06,0.0002524192824319278
0.052475,4.356719844942957e-06,0.0003363970439763048
0.056561999999999994,4.46741090382329e-06,0.000490669047616427
0.06738,4.662693531873775e-06,0.00024959939744220163
0.07202399999999999,4.6934408870934705e-06,0.00046225782490577876
0.079499,4.624236696144507e-06,0.0004111709644559281
0.08250299999999999,4.413878888157421e-06,0.0005619197615383103
0.086517,4.168895457996764e-06,0.0005098273791766302
0.098036,3.371922547245527e-06,0.0003420690500051478
0.11109,1.7842885053170247e-06,0.0005194315240512018
0.11678999999999999,1.7988188160745132e-06,0.0007516579064504654
0.12276999999999999,1.8839423362182079e-06,0.000771495786479469
0.12907,1.9771306711402586e-06,0.0007896461247505754
0.13569,2.073597009857436e-06,0.0007730022422601406
0.14264,2.174807779607866e-06,0.0007397341018027552
0.14995999999999998,2.2869420665488528e-06,0.0007511039532793957
0.15764,2.4041162062154353e-06,0.00070043090437424
0.16573,2.524906727486621e-06,0.0006442791240302329
0.17421999999999999,2.66172458067153e-06,0.00064540938494748
0.18316,2.808258986896808e-06,0.0006666915777588692
0.19255,2.9766126082250075e-06,0.000608628197403048
0.20242,3.155238572722462e-06,0.0005961973509940198
0.2128,3.3203257504224537e-06,0.000542732752971614
0.22371,3.488356026904635e-06,0.0006214521873262364
0.23518,3.6612043896929987e-06,0.000599577168856891
0.24724,3.84691648960805e-06,0.0005708556007769595
0.27324,4.151070394127269e-06,0.0003825889217882041
0.28725,4.480573300094029e-06,0.000496297725431683
0.29452,4.67045353390412e-06,0.0006519445995623069
0.29721,4.755500731274579e-06,0.0010268739746165597
0.29849,4.790806556207551e-06,0.0016463623208817168
0.30196999999999996,4.818690516627389e-06,0.0009641929085506796
0.33372999999999997,5.104649240227644e-06,0.00030242372097972364
0.36883,5.6496469528748564e-06,0.0003045273166568503
0.38774,6.116356513131725e-06,0.00038703110687299535
0.40762,6.4554675411665785e-06,0.0004317244392504866
0.45049,6.945177506618959e-06,0.00024596624646078973
0.49787,7.653836809064107e-06,0.00029297756429402837
0.5234,8.23412479468645e-06,0.0003350192474732301
0.55023,8.631673643992733e-06,0.00034274174104730184
0.57844,9.044219613593392e-06,0.00034191273116297076
0.6081,9.459160660195643e-06,0.00031959768458245173
0.63928,9.827729266220804e-06,0.0003630173318433077
0.67206,1.0162239662135517e-05,0.0003667401129065078
0.70651,1.0457512482232795e-05,0.0003186859581032177
0.74274,1.0653753296634798e-05,0.00031672378260471057
0.78082,1.0725911317391347e-05,0.000295361912187478
0.82085,1.0597758672522309e-05,0.00029604000135142545
0.8629399999999999,1.0206672883936621e-05,0.0003215540415947577
0.90718,9.489948927673083e-06,0.00030564155023516407
0.9616699999999999,8.238243747489968e-06,0.00034495488737549954
1.0026,6.299858998502185e-06,0.0003783593241806799
1.1079999999999999,4.256012913646099e-06,0.00032955041527609385
1.1648,4.367091536585857e-06,0.0004725081280666608
1.2246,4.4458247521842575e-06,0.000524339588247393
1.2873999999999999,4.5261638725039535e-06,0.0005186813541611742
1.3534,4.594329738107154e-06,0.0004932504532655904
1.4226999999999999,4.66272520892355e-06,0.00048302844717279785
1.4957,4.712128290570936e-06,0.0004926317645996902
1.5724,4.756031235720413e-06,0.0005367896142807208
1.653,4.776388488778587e-06,0.0004869050449807458
1.7377,4.779656963836288e-06,0.0004397671573039688
1.8268,4.762212565224273e-06,0.0005012559797201806
1.9204999999999999,4.731526469794366e-06,0.0005412433416166723
2.019,4.67454003329759e-06,0.0004694352840367266
2.1225,4.605674959468846e-06,0.0004906001550752812
2.2313,4.486165773520736e-06,0.0005168987075738196
2.3068999999999997,4.398933409210797e-06,0.0005400631289273537
2.3457,4.329821142454175e-06,0.000949073104388914
2.3653,4.292733138591978e-06,0.0012481068362219017
2.3851,4.2781138462101245e-06,0.0010740711347493718
2.4659999999999997,4.2109124109171695e-06,0.0006463487475927319
2.5924,4.099659871076884e-06,0.0005487221235129558
2.7253,3.956231194467109e-06,0.0005293323160096442
2.8649999999999998,3.827169557445456e-06,0.0005616519315269158
3.0119,3.712233520334743e-06,0.0006089924028215564
3.1664,3.5814968674942006e-06,0.0004818474788255037
3.3287,3.492243881576471e-06,0.0005461965899280215
3.6788,3.398796900088404e-06,0.00041267766564254387
4.0657,3.324893479833998e-06,0.00037888163356324724
4.4933,3.2716421555796266e-06,0.0003834061843342253
4.7237,3.2610066166303306e-06,0.0004868802432292503
4.9658,3.2738502309551743e-06,0.000514265628498085
5.2204999999999995,3.2957681919678476e-06,0.000492842129317344
5.488099999999999,3.3367433596583564e-06,0.0004809939565372408
5.7695,3.3898410906942336e-06,0.0005012200807592055
6.0653,3.4433995052508418e-06,0.0005076840633697292
6.3763,3.5004870547341794e-06,0.00042957782977654175
6.5924,3.5416136641533686e-06,0.0005714396595596429
6.7032,3.5623844925542683e-06,0.0006697612614920231
7.0469,3.6085379151999055e-06,0.0004688320366964928
7.4082,3.678960994322388e-06,0.0005151811787989615
7.787999999999999,3.7773479229668574e-06,0.0004530203849959202
8.1873,3.918736492136953e-06,0.0004672185543467706
8.607099999999999,4.022101296584423e-06,0.0004239671592701511
9.048399999999999,4.1458569148661596e-06,0.00044025774344665395
9.5123,4.357807868061699e-06,0.0003791965522910584
10.0,4.92177824794321e-06,0.0003872545725334563
10.513,9.893904245183557e-06,0.0002681475808748515
11.052,1.0420293794857071e-05,0.0002611018120912153
11.618,1.0951184266136775e-05,0.00023795972690524082
12.213999999999999,1.1444351526931473e-05,0.00023789018388965861
12.523,1.188491862410091e-05,0.0003490190657800925
12.84,1.2197242665381554e-05,0.0002952064480844732
13.498999999999999,1.2445422719925362e-05,0.00022394340145796498
13.84,1.2189484732241159e-05,0.0003035552085288333
14.190999999999999,5.051337638677775e-06,0.0005830487473481391
14.549999999999999,0.0,
14.918,0.0,
15.683,0.0,
16.487,0.0,
16.904999999999998,0.0,
17.332,0.0,
19.64,0.0,
