Energy,Value,Error
1e-07,0.0,
4.1399e-07,0.0,
5.3158e-07,1.534520953642822e-13,1.0
6.825599999999999e-07,1.895312199384487e-12,0.36192565401599
8.7643e-07,1.4207996362031906e-11,0.11512952179118544
1.1252999999999998e-06,7.574408294055765e-11,0.05173443004357843
1.445e-06,1.2698753494031775e-10,0.03831694819645988
1.8553999999999998e-06,1.5501256644714617e-10,0.04102423134024862
2.3824e-06,2.0395235009815346e-10,0.02898127178929031
3.059e-06,2.63723029798241e-10,0.02251531079296261
3.9279e-06,3.3966129664961447e-10,0.02358911088211159
5.043499999999999e-06,4.6153190545340475e-10,0.01988800807154033
6.4759e-06,5.939261842441553e-10,0.017184452183874807
8.3153e-06,7.714219761120738e-10,0.015174800909542298
1.0677e-05,1.0180556058565266e-09,0.015536506665979373
1.3710000000000001e-05,1.2771581532761017e-09,0.012239900976114533
1.7604e-05,1.6664085346236562e-09,0.010495623415904657
2.2603e-05,2.0949547194846376e-09,0.009869901498259316
2.9023e-05,2.7159937851966014e-09,0.009673906562706848
3.7266e-05,3.532650819663103e-09,0.007136647629537398
4.7851e-05,4.580436372567721e-09,0.006271623988578332
6.1442e-05,5.79006168868711e-09,0.006258797709942978
7.889299999999999e-05,7.55895436539026e-09,0.004988398562619965
0.0001013,9.656827767974802e-09,0.004635146807915663
0.00013006999999999998,1.2439745846597801e-08,0.003926323573733143
0.00016702,1.6058875074876887e-08,0.003749849882335041
0.00021444999999999998,2.047403718667552e-08,0.0036699977723421025
0.00027536,2.6392388245540833e-08,0.0025418072745149738
0.00035358,3.3672873645409316e-08,0.0023044626838355543
0.000454,4.304814997312052e-08,0.002228144225471303
0.00058295,5.476710426495225e-08,0.001856744715048349
0.0007485199999999999,7.003815977813866e-08,0.0015728324926167596
0.00096112,8.916742759964493e-08,0.0013078901617910707
0.0012341,1.1340428880265258e-07,0.0013262556646967863
0.0015845999999999998,1.4414875836572505e-07,0.0012198948700722892
0.0020347,1.831337608220585e-07,0.0010834882863319985
0.0022486999999999997,2.1542342071224695e-07,0.0014024807801111274
0.0024852,2.3702289613235476e-07,0.0015017039915214056
0.0026125999999999996,2.544674457506249e-07,0.0018476068770388694
0.0027465,2.6711571302240083e-07,0.0014981042377841761
0.0030354,2.867093751704142e-07,0.0012412852622587735
0.0033545999999999997,3.150111145571816e-07,0.0011312053435895471
0.0037074,3.4648511245740243e-07,0.0011556830025078592
0.004307399999999999,3.900566611539934e-07,0.0008081213756835497
0.0055308,4.712265954171651e-07,0.0007124334943342297
0.0071017,5.944734512864726e-07,0.0005617718764447944
0.009118799999999998,7.747752459772392e-07,0.0004851603399634303
0.010595,8.629524991396611e-07,0.0006033270091767043
0.011708999999999999,1.018437589242955e-06,0.0006365782108765482
0.015033999999999999,1.1979541532348528e-06,0.0003235482611414962
0.019303999999999998,1.4806531941378545e-06,0.0003436436092085857
0.021875,1.861613035408721e-06,0.00035458601592895547
0.023579,1.8794730916115746e-06,0.000502678682663518
0.024176,1.8839795450843955e-06,0.000765055817734711
0.024787999999999998,1.983780972604723e-06,0.000898583746414095
0.026057999999999998,2.1100739466421976e-06,0.0005397046103155132
0.027,1.9834084463449765e-06,0.0006963316383347632
0.028501,2.1628169763956068e-06,0.0005697834023535411
0.031827999999999995,2.825430656810971e-06,0.0003387672124866683
0.034307,1.1786493120793035e-05,0.00020208628805971627
0.040868,2.5256637335153754e-06,0.00028041782762847756
0.046308999999999996,2.615475395396929e-06,0.00034040986521019327
0.052475,3.9655814145949885e-06,0.00031789639268262423
0.056561999999999994,4.638896026538083e-06,0.00040090621501902946
0.06738,5.357347435826299e-06,0.00019091479504073828
0.07202399999999999,5.603043073691392e-06,0.00030346105760152483
0.079499,6.119699633583778e-06,0.0002510215058048676
0.08250299999999999,6.682745133813956e-06,0.0003869755704332769
0.086517,6.362592573769379e-06,0.0003516163473902219
0.098036,7.878990145857411e-06,0.0001878863004787758
0.11109,9.10780785444379e-06,0.00018126734973965617
0.11678999999999999,2.473793164495877e-06,0.0005985826366236166
0.12276999999999999,1.4823022644166026e-07,0.0032521070876020686
0.12907,6.602301425335553e-08,0.006306873721945873
0.13569,1.248278998248252e-07,0.004081748937108453
0.14264,3.6022990787834566e-07,0.002254721523936764
0.14995999999999998,7.973805701076005e-07,0.0014189331426883163
0.15764,2.023671740094267e-06,0.0008113082313794006
0.16573,2.41165606971293e-06,0.0007376328341807729
0.17421999999999999,7.802985957419918e-06,0.00037496816262474304
0.18316,7.844188502934607e-07,0.0015820746802900252
0.19255,2.412925245495001e-06,0.0007593702352656509
0.20242,4.164000020215108e-06,0.0005000344228276864
0.2128,7.398316657379796e-06,0.0003105168428067305
0.22371,1.942743505211954e-06,0.000853571629367479
0.23518,3.944632750228672e-06,0.0006060695318441387
0.24724,5.409705342422278e-06,0.0005287907405224831
0.27324,9.45151229552934e-06,0.0002314541841786226
0.28725,7.5036610334416026e-06,0.00038399356598148673
0.29452,7.048254652853862e-06,0.0006497877122898821
0.29721,8.221454154928238e-06,0.0008496504568960859
0.29849,8.629865091421533e-06,0.0012070092679871485
0.30196999999999996,7.595884705365727e-06,0.0008805220606486931
0.33372999999999997,6.981555635480152e-06,0.000327112867534099
0.36883,7.740727444127788e-06,0.00028836796231844627
0.38774,8.387072272030131e-06,0.0003789640170236492
0.40762,8.856640399483911e-06,0.0003930402135994709
0.45049,9.51696369673057e-06,0.0002669113193126826
0.49787,1.0453317078381068e-05,0.0002390414362966253
0.5234,1.1172265117251146e-05,0.0003238780506024855
0.55023,1.161192251226022e-05,0.00031437015258801765
0.57844,1.2049614368977222e-05,0.00034478053075897083
0.6081,1.2472542027540288e-05,0.00031701332703090355
0.63928,1.2797347884809904e-05,0.0003077981134112963
0.67206,1.3058265515937803e-05,0.0003091640437535609
0.70651,1.3226902780590701e-05,0.00026774303953868377
0.74274,1.323758805175021e-05,0.0002996958445203537
0.78082,1.3090481146184091e-05,0.000304594124903532
0.82085,1.2745367640978608e-05,0.0002824599861832889
0.8629399999999999,1.2165771011474083e-05,0.00031565664143527755
0.90718,1.1437000362544263e-05,0.0003523971024961246
0.9616699999999999,1.0463493679120192e-05,0.0003504393198353278
1.0026,9.123509366235142e-06,0.00040341376613348785
1.1079999999999999,8.252031396753668e-06,0.0002781396207447047
1.1648,8.375254825765263e-06,0.00040819608722048425
1.2246,8.376695785469576e-06,0.00033629609739703893
1.2873999999999999,8.29687431327999e-06,0.0003573463174161432
1.3534,8.135424002433203e-06,0.00038377060957972537
1.4226999999999999,7.859935130617374e-06,0.00037888427478323193
1.4957,7.495613072292545e-06,0.0004342226361690023
1.5724,7.0737435196326385e-06,0.0003977583840263203
1.653,6.5576338444063125e-06,0.00044890419813141153
1.7377,6.056383761693861e-06,0.00047716668467612217
1.8268,5.6034062478619355e-06,0.0004441223477245447
1.9204999999999999,5.17603489336196e-06,0.0005222156347720605
2.019,4.830506345039641e-06,0.0005227922192712728
2.1225,4.664250325553205e-06,0.0004691418202294095
2.2313,4.512382031136387e-06,0.0005331475533330131
2.3068999999999997,4.372328462071589e-06,0.0006692911680927025
2.3457,4.279630951012412e-06,0.0009594270340054912
2.3653,4.234572264966623e-06,0.0012313013510172903
2.3851,4.18472189325113e-06,0.0012604609134670218
2.4659999999999997,4.086091559587448e-06,0.0006232845857958487
2.5924,3.858073610694396e-06,0.0005151741314007449
2.7253,3.7099291822031367e-06,0.0005464792187006907
2.8649999999999998,3.556515266282152e-06,0.0005263904942364645
3.0119,3.401927347561611e-06,0.0005722089120654933
3.1664,3.3070775239867904e-06,0.0006037549917853061
3.3287,3.20607387560386e-06,0.0006096190405219028
3.6788,2.976327201046031e-06,0.000415227233736736
4.0657,2.729699769855576e-06,0.0004975219261478426
4.4933,2.5442932120774784e-06,0.00038996330401518716
4.7237,2.4440223382283823e-06,0.0005999008098398937
4.9658,2.3756361645449675e-06,0.000629562161855362
5.2204999999999995,2.3256351424674068e-06,0.00061345068874383
5.488099999999999,2.2781222396527606e-06,0.0005749382172062087
5.7695,2.212042660835394e-06,0.0005639758982458868
6.0653,2.1800074149637425e-06,0.0005742068386889089
6.3763,2.161272182914004e-06,0.0006253654701955057
6.5924,2.1523604654505423e-06,0.0008277745746669574
6.7032,2.137115472438604e-06,0.0010390574738978837
7.0469,2.1293661684847286e-06,0.0006036921291172792
7.4082,2.132694488027036e-06,0.0005903962014996007
7.787999999999999,2.1554365595590823e-06,0.0006151767711800066
8.1873,2.202685631627085e-06,0.0006373699392153119
8.607099999999999,2.295270711267192e-06,0.0006161584527676448
9.048399999999999,2.372807929965294e-06,0.0006290713415260235
9.5123,2.5129768574635834e-06,0.0005777348097130006
10.0,2.9742605509639793e-06,0.0005048776945112642
10.513,5.600165644837091e-06,0.00035035944245931795
11.052,5.944375860948784e-06,0.00029243293787318734
11.618,6.367479130351387e-06,0.000325624786644667
12.213999999999999,6.7693370458019294e-06,0.000345526777820096
12.523,7.0044632540004925e-06,0.0004883559541507999
12.84,7.188920719668488e-06,0.0004186924945911113
13.498999999999999,7.3562441525651955e-06,0.0003058607834696276
13.84,7.0498359456031765e-06,0.0004196193442253771
14.190999999999999,2.700592117877716e-06,0.0007611197629663094
14.549999999999999,0.0,
14.918,0.0,
15.683,0.0,
16.487,0.0,
16.904999999999998,0.0,
17.332,0.0,
19.64,0.0,
