Energy,Value,Error
1e-07,1.0151590312692749e-12,0.2074003106657976
4.1399e-07,8.102702487439194e-11,0.02996494430398449
5.3158e-07,6.46045044426551e-11,0.037499434631874155
6.825599999999999e-07,9.923356919988411e-11,0.02926100118022118
8.7643e-07,1.5597420576886166e-10,0.024593376614502154
1.1252999999999998e-06,2.1747620791032723e-10,0.020489634177498772
1.445e-06,3.06884685391223e-10,0.017243224519020894
1.8553999999999998e-06,4.00595010988571e-10,0.012969033150950953
2.3824e-06,5.167720704152193e-10,0.0132100465407408
3.059e-06,6.365682203761807e-10,0.0107860771549904
3.9279e-06,7.76858464276622e-10,0.00993022900874632
5.043499999999999e-06,9.450596018964864e-10,0.009220914193224898
6.4759e-06,1.0890189951518114e-09,0.009055034662639825
8.3153e-06,1.2098225508753693e-09,0.008093692950584954
1.0677e-05,1.3972825886667967e-09,0.008207958727770939
1.3710000000000001e-05,1.540229561423436e-09,0.007811907749016546
1.7604e-05,1.7190326683828794e-09,0.007203092335925404
2.2603e-05,1.8834262963881515e-09,0.006295979289397157
2.9023e-05,2.0242585499335316e-09,0.006512746423575609
3.7266e-05,2.2233720613546456e-09,0.006489430221850864
4.7851e-05,2.426533264609604e-09,0.0066519180699311274
6.1442e-05,2.5893304434504285e-09,0.006116267699846052
7.889299999999999e-05,2.811530729668491e-09,0.005602746888422731
0.0001013,3.068823858293801e-09,0.005063008730590159
0.00013006999999999998,3.3424050151923287e-09,0.005075572365597165
0.00016702,3.709372136979301e-09,0.0047424424788894
0.00021444999999999998,4.061756991161852e-09,0.004340333844677297
0.00027536,4.4952947946977156e-09,0.004236259804074125
0.00035358,4.958847648540467e-09,0.003938965682650227
0.000454,5.656941804372321e-09,0.0039880181182993515
0.00058295,6.547004703299122e-09,0.003747952890061291
0.0007485199999999999,8.193413953944578e-09,0.0031609386527643407
0.00096112,1.4606047258888454e-08,0.0024585408647779766
0.0012341,1.2866017705407987e-07,0.0006261851989997385
0.0015845999999999998,2.2222861564322385e-08,0.0019003190098103994
0.0020347,2.6462701072217093e-08,0.0016723938437876928
0.0022486999999999997,1.3243036183752538e-08,0.0025840296644740863
0.0024852,1.418082407743795e-08,0.002243013508960983
0.0026125999999999996,7.448320883306842e-09,0.0029617290498648043
0.0027465,7.753469854356835e-09,0.0031964536520101834
0.0030354,1.6493449402942383e-08,0.0021129831150514785
0.0033545999999999997,1.8689617932520053e-08,0.0021986780832029093
0.0037074,2.3105813981183327e-08,0.0022045400161364065
0.004307399999999999,8.120284050424792e-08,0.0008990172270803052
0.0055308,7.192773383586535e-07,0.00025220573557632574
0.0071017,3.829758690514741e-07,0.0003770580094221377
0.009118799999999998,2.2086108262322132e-06,0.0001667300664231585
0.010595,3.307471882647064e-06,0.00011494593468982595
0.011708999999999999,6.668864787978252e-07,0.00029412012161585674
0.015033999999999999,3.332408126452772e-06,0.00011918317587286833
0.019303999999999998,3.183156669601256e-07,0.000480543767568009
0.021875,1.8090134851646927e-07,0.0007446791505290132
0.023579,1.157814743580182e-07,0.0008353448225579454
0.024176,3.977602019353171e-08,0.0015738394106790167
0.024787999999999998,4.052123797045414e-08,0.0014279578517756902
0.026057999999999998,8.308175958909823e-08,0.0009638220289282847
0.027,6.059260709725113e-08,0.0012826592602086435
0.028501,9.513115409668726e-08,0.0009744365590091111
0.031827999999999995,2.0569030274666756e-07,0.0006761517687965382
0.034307,1.4772614586455425e-07,0.0008579109231814228
0.040868,3.7200582375755715e-07,0.00045008424857260717
0.046308999999999996,2.907898244690265e-07,0.0005481795220179855
0.052475,3.124706536225483e-07,0.0005347965990696004
0.056561999999999994,1.985546541271962e-07,0.0006261365893906731
0.06738,4.982093675108044e-07,0.0004347037686060667
0.07202399999999999,2.0264014818396317e-07,0.0006560306321011998
0.079499,3.136209671220409e-07,0.0005026726307119536
0.08250299999999999,1.218668469337479e-07,0.0008438205924983537
0.086517,1.597363697250855e-07,0.0006502865551229371
0.098036,4.386196443298116e-07,0.000419042459441418
0.11109,4.6562340774621017e-07,0.0004843944286431686
0.11678999999999999,1.933075575213497e-07,0.0007379744206685183
0.12276999999999999,1.9713476545190266e-07,0.0006717314794957675
0.12907,2.0209335197551637e-07,0.0006509055965735129
0.13569,2.0638758174710733e-07,0.000633519875114826
0.14264,2.1107270133618894e-07,0.0007045019674730692
0.14995999999999998,2.1613592002020454e-07,0.0007186768420099917
0.15764,2.2009308985589237e-07,0.0005648116096777461
0.16573,2.2460121306996592e-07,0.0006335882700799237
0.17421999999999999,2.2825267459792716e-07,0.0006178472034112319
0.18316,2.328234041353201e-07,0.0005458115352925456
0.19255,2.3697446130119686e-07,0.0006581674144758287
0.20242,2.412284646018892e-07,0.000594086424507595
0.2128,2.45339961134994e-07,0.0005153066454208242
0.22371,2.495462334546908e-07,0.0006049870184782736
0.23518,2.53436936867852e-07,0.0005681307200073311
0.24724,2.5757435355366066e-07,0.0006356401590864322
0.27324,5.271871242401158e-07,0.0004340124584376272
0.28725,2.688050451699553e-07,0.000599961203506287
0.29452,1.3582140964246174e-07,0.0007937685367355062
0.29721,4.9588014016452965e-08,0.0013490988444653364
0.29849,2.3411236702868574e-08,0.0019649583578219957
0.30196999999999996,6.347109907756763e-08,0.0012400782111808312
0.33372999999999997,5.546457666019205e-07,0.0003902495110707881
0.36883,5.652990466840032e-07,0.0003639196661121771
0.38774,2.8644532269978214e-07,0.0005480250168776577
0.40762,2.874137196407819e-07,0.0006211620586663515
0.45049,5.772207733896765e-07,0.00039665132770286884
0.49787,5.752409789762834e-07,0.00038280642588030294
0.5234,2.8476843685777154e-07,0.000574224228499977
0.55023,2.810511825024373e-07,0.00048354893894848416
0.57844,2.7656940822585013e-07,0.0005897616146507259
0.6081,2.700555979520084e-07,0.0005975416185757824
0.63928,2.6241208018591246e-07,0.0006018722393342995
0.67206,2.53108289581102e-07,0.0005452557208810241
0.70651,2.417613874186478e-07,0.000665366386140818
0.74274,2.2862582223945906e-07,0.0005980191066451584
0.78082,2.13728767910138e-07,0.0005561031692014473
0.82085,1.9775819251026898e-07,0.0006771553833086326
0.8629399999999999,1.7982929025829236e-07,0.0006134261451162146
0.90718,1.6107253123116508e-07,0.0007281820784791451
0.9616699999999999,1.6286901561559933e-07,0.0006956770635732924
1.0026,9.978016392261204e-08,0.0007548094209696756
1.1079999999999999,1.8414189940012617e-07,0.0006732385083176172
1.1648,6.711549568984428e-08,0.0010748416879107106
1.2246,5.6429361225427226e-08,0.001149230921489906
1.2873999999999999,4.8731754480277717e-08,0.0012639043470315844
1.3534,4.233167187136409e-08,0.0013262188981912402
1.4226999999999999,3.793029574187684e-08,0.001578498744980881
1.4957,3.4958399440649474e-08,0.001346836830893784
1.5724,3.230837676419756e-08,0.0016450361890327384
1.653,3.031589413495918e-08,0.0016865497005347293
1.7377,2.831859729874036e-08,0.00150629462679135
1.8268,2.5554046301574265e-08,0.0017000612662699084
1.9204999999999999,2.3705533995265772e-08,0.0017462382184420578
2.019,2.2124977583357716e-08,0.0017994238845326176
2.1225,2.087103079549697e-08,0.0018599207790610645
2.2313,1.9233563845445493e-08,0.0017781539024373228
2.3068999999999997,1.1984037752990023e-08,0.0020679292846287434
2.3457,5.799510841064003e-09,0.0035310035103961563
2.3653,2.828782642113899e-09,0.003989789809973805
2.3851,2.795933821508424e-09,0.005043410879507986
2.4659999999999997,1.088832826377504e-08,0.0024370196548617563
2.5924,1.516132027860897e-08,0.002007519786319802
2.7253,1.3634286623225711e-08,0.002211834814185678
2.8649999999999998,1.2576890767838813e-08,0.0021185606407196603
3.0119,1.1648922974590084e-08,0.002185024141692035
3.1664,1.0754463732612963e-08,0.00247581884904583
3.3287,9.880095937472265e-09,0.0024933523138185648
3.6788,1.738899731715749e-08,0.0018614947439776792
4.0657,1.526976495225788e-08,0.0018847484473829828
4.4933,1.4094724197274843e-08,0.0019390165200272645
4.7237,6.937325551926377e-09,0.0024675188918394245
4.9658,6.982170020323943e-09,0.00275612893326316
5.2204999999999995,7.170234711370071e-09,0.0024787447027845954
5.488099999999999,7.533076111358195e-09,0.0031451643687367727
5.7695,7.911070416922214e-09,0.003028299842928207
6.0653,8.501042276001336e-09,0.0024096745879346538
6.3763,9.250457925975323e-09,0.0023933430825193915
6.5924,6.573476387414176e-09,0.0027949253461244726
6.7032,3.4355811183844326e-09,0.0036593530094252112
7.0469,1.0943911752113194e-08,0.0019144988613842167
7.4082,1.2359238038997565e-08,0.002093780218982091
7.787999999999999,1.3797559041647102e-08,0.001829211780539635
8.1873,1.4978927047510205e-08,0.0018932620666588043
8.607099999999999,1.624627247384685e-08,0.001890144217037234
9.048399999999999,1.8392502696397794e-08,0.0014524190071730997
9.5123,2.0340654867204275e-08,0.001648300518975875
10.0,2.5022523348682693e-08,0.0012492726791458579
10.513,3.8413295731857417e-08,0.0010707406432157156
11.052,4.037947006229423e-08,0.00099945239108781
11.618,4.0526530100321185e-08,0.0010522466675021505
12.213999999999999,4.212723792195246e-08,0.0010253031862774674
12.523,2.165406188409796e-08,0.0015343797450530934
12.84,2.149447866193516e-08,0.0013634211758466357
13.498999999999999,4.172369779384144e-08,0.0009444814717457368
13.84,1.9896501685982545e-08,0.0012594702659505354
14.190999999999999,5.509552841085306e-09,0.002673198070579661
14.549999999999999,0.0,
14.918,0.0,
15.683,0.0,
16.487,0.0,
16.904999999999998,0.0,
17.332,0.0,
19.64,0.0,
