Energy,Value,Error
1e-07,0.0,
4.1399e-07,0.0,
5.3158e-07,0.0,
6.825599999999999e-07,0.0,
8.7643e-07,1.473092065584902e-13,0.9999999999999999
1.1252999999999998e-06,4.367391485779541e-11,0.0465612246064093
1.445e-06,1.0689052729219578e-10,0.031682288164665576
1.8553999999999998e-06,1.363269505164811e-10,0.033306749041367545
2.3824e-06,1.6315853542080603e-10,0.022381913825640847
3.059e-06,2.1789282740881873e-10,0.02582201327701927
3.9279e-06,2.6793183914785317e-10,0.021611632664591013
5.043499999999999e-06,3.519465096324328e-10,0.018539807393342114
6.4759e-06,4.681086632800785e-10,0.01638827912834322
8.3153e-06,5.843309267681733e-10,0.013365454087440606
1.0677e-05,7.691784627653358e-10,0.01134853067536796
1.3710000000000001e-05,9.85123403083507e-10,0.011283573337580103
1.7604e-05,1.2415595516785935e-09,0.009377903237610471
2.2603e-05,1.564345853652604e-09,0.007429372594734498
2.9023e-05,2.041012815005774e-09,0.009049161926848641
3.7266e-05,2.6184096514796687e-09,0.0070330509818374055
4.7851e-05,3.3579716246703464e-09,0.005894702818573124
6.1442e-05,4.337575367080564e-09,0.006129095663181396
7.889299999999999e-05,5.583913974526381e-09,0.0046291244796284525
0.0001013,7.0957061099257795e-09,0.004465787643650296
0.00013006999999999998,9.217184733414472e-09,0.0043581426341685455
0.00016702,1.1811581728009339e-08,0.0032183689187115696
0.00021444999999999998,1.5122228846296156e-08,0.0032484759442833393
0.00027536,1.9488295833931274e-08,0.0024877089058011185
0.00035358,2.4972575435489484e-08,0.002030744371894944
0.000454,3.211323921570944e-08,0.001955212242332844
0.00058295,4.115806851276641e-08,0.0016685324859519208
0.0007485199999999999,5.285402054088647e-08,0.001526796579259123
0.00096112,6.790481888264457e-08,0.0012833508573014633
0.0012341,8.722464082960066e-08,0.0012384538335510052
0.0015845999999999998,1.1177418003536169e-07,0.0010649694599998815
0.0020347,1.4380350619355303e-07,0.0010235520724640617
0.0022486999999999997,1.7074481662905509e-07,0.0013512299422475818
0.0024852,1.8893910262968103e-07,0.0013014502022222242
0.0026125999999999996,2.028227993616342e-07,0.001756513934796614
0.0027465,2.1367720081556096e-07,0.0016638354255762199
0.0030354,2.3030900072419888e-07,0.001291506078510228
0.0033545999999999997,2.5455236798990943e-07,0.0011958856195660409
0.0037074,2.817331665450151e-07,0.0010271958098692466
0.004307399999999999,3.194951480743446e-07,0.0008090759961897105
0.0055308,3.906343496588909e-07,0.0006650406957541607
0.0071017,5.015201375225285e-07,0.00045525271039026106
0.009118799999999998,6.439158311985286e-07,0.0004883287727057796
0.010595,7.855554113562184e-07,0.0005178378291392292
0.011708999999999999,8.89378052493563e-07,0.0005685933314500249
0.015033999999999999,1.0621534078313438e-06,0.0003351664182651703
0.019303999999999998,1.3630713179971242e-06,0.00030170239163314057
0.021875,1.6404986968452634e-06,0.0003783675324950811
0.023579,1.8134788335615304e-06,0.00045430657562399023
0.024176,1.907309224197392e-06,0.0008618929553634675
0.024787999999999998,1.952231297112608e-06,0.0007707406425551744
0.026057999999999998,2.0291817583108464e-06,0.0005926260075435549
0.027,2.115344092368631e-06,0.000697972739298952
0.028501,2.2148770707861908e-06,0.000524270788371649
0.031827999999999995,2.4053381808720802e-06,0.0003438569766454763
0.034307,2.6371830652583e-06,0.00040426182282285667
0.040868,2.9922976386249403e-06,0.00022473470685778352
0.046308999999999996,3.4741182060602292e-06,0.0002518369635842395
0.052475,3.9365396655863625e-06,0.00025927609159926546
0.056561999999999994,4.348192364384942e-06,0.0003086511974769686
0.06738,4.931246181568327e-06,0.00018572176459100617
0.07202399999999999,5.560321628556204e-06,0.00028437838114772423
0.079499,6.040211777681323e-06,0.00022936446964445605
0.08250299999999999,6.458877974655227e-06,0.0003197936816353623
0.086517,6.730580845423263e-06,0.0003323252168789296
0.098036,7.309988618238668e-06,0.0001964372837161834
0.11109,2.0292551774913263e-06,0.00036485973590855473
0.11678999999999999,1.009155473370876e-06,0.0008253178346502401
0.12276999999999999,1.061113165566114e-06,0.0007610008915173161
0.12907,1.1171101189181767e-06,0.0007639289502945269
0.13569,1.1793294431173001e-06,0.0006745816793563151
0.14264,1.2376835737022912e-06,0.0007565004159469
0.14995999999999998,1.3018753879216552e-06,0.0007225380115962488
0.15764,1.3659807781415702e-06,0.0006752614726451652
0.16573,1.4207822140994676e-06,0.000693621101984709
0.17421999999999999,1.5055939581706421e-06,0.0007055113849112576
0.18316,1.5842086884615965e-06,0.000598656518785059
0.19255,1.6642140883923933e-06,0.0006343683936286512
0.20242,1.7495981883212027e-06,0.000486276965851708
0.2128,1.838324795314695e-06,0.0006182685005435039
0.22371,1.934418240814366e-06,0.000567986845794772
0.23518,2.0342091155619764e-06,0.0005270526578521423
0.24724,2.1391726120347605e-06,0.0005744710440322952
0.27324,2.304236925538404e-06,0.0003736544950800637
0.28725,2.4846481716766847e-06,0.0004550592697245879
0.29452,2.5816380708576567e-06,0.0007907876453082364
0.29721,2.6215191405742966e-06,0.0011817035608481696
0.29849,2.6427156348672714e-06,0.0015885074040856493
0.30196999999999996,2.657708205005408e-06,0.0009358888949815209
0.33372999999999997,2.8185402093722916e-06,0.00030572985687550314
0.36883,3.1149923074339866e-06,0.00035129537470858995
0.38774,3.354312297253065e-06,0.00045554887187908044
0.40762,3.511714659503037e-06,0.0004509598065218243
0.45049,3.7992965710684828e-06,0.00029824012405081695
0.49787,4.198537788051204e-06,0.00029538125697030186
0.5234,4.530084822211719e-06,0.00034411464742027805
0.55023,4.780294970471087e-06,0.0003780865868337437
0.57844,5.042951817373081e-06,0.00034340842289268193
0.6081,5.305003673295661e-06,0.0003390986787036564
0.63928,5.563311870750957e-06,0.0002836442233093977
0.67206,5.772262711207068e-06,0.0003762821124213493
0.70651,6.065770258436552e-06,0.0003352698605368508
0.74274,6.405321874641746e-06,0.0002985258408336757
0.78082,6.740795392428605e-06,0.00028707692438620933
0.82085,7.078947092781168e-06,0.00027664737826470437
0.8629399999999999,7.444903183030314e-06,0.00031070875347882673
0.90718,7.813970228572667e-06,0.000291357762039255
0.9616699999999999,8.241194906748184e-06,0.0002277857876309981
1.0026,8.156329855137814e-06,0.0003127970086480007
1.1079999999999999,9.398584974171421e-07,0.0005362627176194773
1.1648,1.0139573648672509e-06,0.0007716820133942222
1.2246,1.0663913177334638e-06,0.0006788106483608535
1.2873999999999999,1.1225057303032159e-06,0.0007854701068355701
1.3534,1.1830674804899212e-06,0.0007027726612964831
1.4226999999999999,1.2409237333479728e-06,0.0007164244558870207
1.4957,1.2984792101074246e-06,0.0006493195444510887
1.5724,1.3596120289087618e-06,0.0006288111478206549
1.653,1.4272636392049932e-06,0.0007091000524668376
1.7377,1.50649792174931e-06,0.000726435486719315
1.8268,1.5859466810847892e-06,0.0006337039049252918
1.9204999999999999,1.6649206272127394e-06,0.0006984850435248982
2.019,1.7525017144013128e-06,0.0005885730202078701
2.1225,1.8394853134427824e-06,0.0006019334320572524
2.2313,1.9372013961942334e-06,0.0005807494134337596
2.3068999999999997,2.0171595444233857e-06,0.0006672389933926344
2.3457,2.0650025701858275e-06,0.000946055833064967
2.3653,2.0893484565833567e-06,0.0014060544621588265
2.3851,2.109051408085216e-06,0.0014558067515059907
2.4659999999999997,2.1490432815251713e-06,0.0006675930977772161
2.5924,2.243201128392277e-06,0.0005436318708747903
2.7253,2.36040962249459e-06,0.0004837728383109696
2.8649999999999998,2.4785379450666225e-06,0.0005261101681741105
3.0119,2.6079309312535412e-06,0.0005123930134175206
3.1664,2.737186567607319e-06,0.0005086560286482515
3.3287,2.876599408141472e-06,0.00044623349091575226
3.6788,3.101733227192126e-06,0.00033702147131512995
4.0657,3.428584573460733e-06,0.0002850211385127254
4.4933,3.789964604992883e-06,0.0002680188731084894
4.7237,4.0819327874188225e-06,0.0003517173572538783
4.9658,4.289579555004689e-06,0.00041167467522947623
5.2204999999999995,4.508156049354998e-06,0.00032378864842490387
5.488099999999999,4.742061990922614e-06,0.00035174850925618294
5.7695,4.985673282421519e-06,0.00031956377221856126
6.0653,5.235286263026692e-06,0.0003608890816609247
6.3763,5.5040142949675985e-06,0.0003174802179958839
6.5924,5.7390730783828544e-06,0.00036440651489209414
6.7032,5.882830799907362e-06,0.0006062953152894851
7.0469,6.0832202379274326e-06,0.00029156202619556214
7.4082,6.3938635229420306e-06,0.00036822583075010225
7.787999999999999,6.71781089659099e-06,0.00026179086347873326
8.1873,7.068532044731698e-06,0.000315372250775251
8.607099999999999,7.425187062543426e-06,0.00027720673834035685
9.048399999999999,7.806699395301647e-06,0.00027480213035475573
9.5123,8.211942139173812e-06,0.0002803145651283369
10.0,8.632167165872836e-06,0.00031001345561029996
10.513,2.037795585313319e-05,0.00016369536589250675
11.052,2.1423814049224332e-05,0.00016920547044020122
11.618,2.251054295494298e-05,0.0001489632497377327
12.213999999999999,2.3666794511987478e-05,0.00017326739277862764
12.523,2.45617419992177e-05,0.00021495496830641273
12.84,2.5190791355810055e-05,0.00022620874366622193
13.498999999999999,2.6139870700392782e-05,0.00016293386518378752
13.84,2.7129401995100142e-05,0.00021373886459562713
14.190999999999999,1.2672775662479542e-05,0.00032442284277850003
14.549999999999999,0.0,
14.918,0.0,
15.683,0.0,
16.487,0.0,
16.904999999999998,0.0,
17.332,0.0,
19.64,0.0,
