Energy,Value,Error
1e-07,2.016491195837179e-11,0.02010980919649981
4.1399e-07,3.436023446587902e-10,0.012216169702626841
5.3158e-07,7.038724473267451e-10,0.018554843751232772
6.825599999999999e-07,8.978604135403421e-10,0.015630245066819537
8.7643e-07,1.125085992514406e-09,0.015233133468957504
1.1252999999999998e-06,1.4557533453360955e-09,0.012636027676117934
1.445e-06,1.8078912312036877e-09,0.009477994106937919
1.8553999999999998e-06,2.2486349988416012e-09,0.009189934650532578
2.3824e-06,2.8556901680763446e-09,0.009302687574176141
3.059e-06,3.5375687512694656e-09,0.009296442341552592
3.9279e-06,4.4019440136014415e-09,0.007895752065214631
5.043499999999999e-06,5.546672346855587e-09,0.006810933709110793
6.4759e-06,6.87858379620518e-09,0.006377511123585651
8.3153e-06,8.536199197665852e-09,0.005319288046244931
1.0677e-05,1.067679057442688e-08,0.004930649060458828
1.3710000000000001e-05,1.3161745852779082e-08,0.004215746227011526
1.7604e-05,1.6560071782905344e-08,0.003581481324436847
2.2603e-05,2.0353678072918275e-08,0.0035854620692485025
2.9023e-05,2.53110863391511e-08,0.002805798875975374
3.7266e-05,3.114181126250892e-08,0.0026583797503902003
4.7851e-05,3.871605435656328e-08,0.0026488387231049294
6.1442e-05,4.797198087239821e-08,0.0023806497550979038
7.889299999999999e-05,5.908002114992397e-08,0.0019753339602864802
0.0001013,7.290392846947062e-08,0.001678434268111516
0.00013006999999999998,8.972949851387218e-08,0.0014424729289625228
0.00016702,1.1047491433237654e-07,0.001569160856653314
0.00021444999999999998,1.3564474870471416e-07,0.0012335500720457786
0.00027536,1.660968619587703e-07,0.001151468502424938
0.00035358,2.0299219967814805e-07,0.00100950648905306
0.000454,2.4784328253497126e-07,0.000967385675616432
0.00058295,3.023736674565997e-07,0.0008875996470266147
0.0007485199999999999,3.677481886490122e-07,0.0008000783515005172
0.00096112,4.4592399883514914e-07,0.0007358808304039183
0.0012341,5.389105749433479e-07,0.0006497217805076762
0.0015845999999999998,6.499846143629507e-07,0.0006187113251151629
0.0020347,7.82001715854201e-07,0.00046136849007397964
0.0022486999999999997,8.854414463884182e-07,0.0007895636246615061
0.0024852,9.519022348822599e-07,0.0007846081808033589
0.0026125999999999996,1.0023527255687225e-06,0.0010861539729946092
0.0027465,1.0418459144132367e-06,0.0009759169002968824
0.0030354,1.095667001082888e-06,0.0007149252773943701
0.0033545999999999997,1.1764122729223582e-06,0.0006289768223118793
0.0037074,1.2599031937841203e-06,0.0006049453869487557
0.004307399999999999,1.3701521877850627e-06,0.00046819364658648406
0.0055308,1.5650375966146582e-06,0.0004035026717660153
0.0071017,1.8387338640484866e-06,0.0003309258974331338
0.009118799999999998,2.146297008396511e-06,0.0002893383919455347
0.010595,2.4114723364448424e-06,0.00041353515403966934
0.011708999999999999,2.5869884867893135e-06,0.00041710942639804137
0.015033999999999999,2.8465963977018595e-06,0.0002712054093635682
0.019303999999999998,3.246964954988436e-06,0.0002565488991156638
0.021875,3.567917536598244e-06,0.00034497599329967463
0.023579,3.7509773342894573e-06,0.00047536565648746216
0.024176,3.847892050743274e-06,0.0007432153194659063
0.024787999999999998,3.892152720254598e-06,0.0006876728192720854
0.026057999999999998,3.9553250197265555e-06,0.0005365264848880232
0.027,4.028003284259403e-06,0.000571707405618849
0.028501,4.10444102771329e-06,0.0005114250874699401
0.031827999999999995,4.238133314918192e-06,0.0002942049135609583
0.034307,4.392161606008513e-06,0.00039067503645041213
0.040868,4.594304206888766e-06,0.000244313626196967
0.046308999999999996,4.809996840110444e-06,0.0002522654661214944
0.052475,4.9444666978116715e-06,0.00027750070945308886
0.056561999999999994,5.0244836074262815e-06,0.000350432245261935
0.06738,5.124711065547704e-06,0.00021778330944772082
0.07202399999999999,5.229524820560001e-06,0.00042483521268645583
0.079499,5.297208934945441e-06,0.000318987785852927
0.08250299999999999,5.363806555733693e-06,0.00044752601574601225
0.086517,5.405461151087329e-06,0.0004252841514471663
0.098036,5.4833015273864975e-06,0.0002619311525897051
0.11109,3.5301642593022876e-06,0.00032113176567276336
0.11678999999999999,3.2719934957862024e-06,0.0005819549671637562
0.12276999999999999,3.346766964304064e-06,0.0005344390949214284
0.12907,3.4265464791880132e-06,0.0005297096704538702
0.13569,3.500903397139645e-06,0.00045956330813988407
0.14264,3.581020686285946e-06,0.0005898284813973373
0.14995999999999998,3.65653853290271e-06,0.0004965703964266733
0.15764,3.7339399810515013e-06,0.0005378158854702113
0.16573,3.8135140477779903e-06,0.0005517709803652931
0.17421999999999999,3.889622366090099e-06,0.0005387142502729608
0.18316,3.973270370298681e-06,0.0005237983202564831
0.19255,4.054236824004851e-06,0.0005523684494366918
0.20242,4.138187562104595e-06,0.0005734855457454751
0.2128,4.215967373327348e-06,0.0005082560297999133
0.22371,4.3100398430811416e-06,0.000505138084161105
0.23518,4.399781999108678e-06,0.00043123889060780633
0.24724,4.4838816399188134e-06,0.0004844518893933955
0.27324,4.5867105971575344e-06,0.0003101285364934593
0.28725,4.6617180850647515e-06,0.000463486866223591
0.29452,4.703975015780616e-06,0.0006921153818373571
0.29721,4.718141575637731e-06,0.0010968930427603554
0.29849,4.7205592878337154e-06,0.0016181597137541893
0.30196999999999996,4.724378373682952e-06,0.0010000128741162676
0.33372999999999997,4.781281587918186e-06,0.00034641869061313626
0.36883,4.861992659343301e-06,0.0003148155319284375
0.38774,4.911690004238103e-06,0.00043982351464002097
0.40762,4.938373237269969e-06,0.0004414218075084866
0.45049,4.9571255135429e-06,0.0003148560573220989
0.49787,4.954094034699181e-06,0.0002851553242736956
0.5234,4.916439485403909e-06,0.0004065039159522487
0.55023,4.895406301642434e-06,0.0004176771088789548
0.57844,4.875327047452504e-06,0.0004419401933039562
0.6081,4.859769211965942e-06,0.0004501788449337809
0.63928,4.855479444133511e-06,0.0003969281341490939
0.67206,4.851582138420172e-06,0.0004229989690823026
0.70651,4.859540918570646e-06,0.00045858874117544075
0.74274,4.877707281065376e-06,0.00043623105490700644
0.78082,4.905460866959116e-06,0.00042754136466870217
0.82085,4.936747087792338e-06,0.00036078852838621566
0.8629399999999999,4.976650473965152e-06,0.00042139027496741695
0.90718,5.020428499270992e-06,0.00042735697827633683
0.9616699999999999,5.063167002319728e-06,0.00038672072649854623
1.0026,4.933585829593413e-06,0.00048447037243288805
1.1079999999999999,2.332949936342739e-06,0.00047047143410482514
1.1648,2.322684767863078e-06,0.0005993837001714109
1.2246,2.315114056568787e-06,0.0006177698042152325
1.2873999999999999,2.3038821779577432e-06,0.0006913318874727296
1.3534,2.2944138887162587e-06,0.0006891368250386662
1.4226999999999999,2.284627351221495e-06,0.0007410764528110097
1.4957,2.2789297100882315e-06,0.0006691331349135237
1.5724,2.2785871248344473e-06,0.0007284029561995881
1.653,2.281810117559495e-06,0.0006628891246667333
1.7377,2.2861762429822108e-06,0.0006360912110456339
1.8268,2.2995665890388744e-06,0.0007021539642978939
1.9204999999999999,2.319884114002254e-06,0.0006999653793667596
2.019,2.343697576945646e-06,0.0006712081079181425
2.1225,2.380185174108881e-06,0.0005374748272989621
2.2313,2.424290359232078e-06,0.000526975033467085
2.3068999999999997,2.4626658185669586e-06,0.000702629797150332
2.3457,2.487063416716234e-06,0.000977830761159303
2.3653,2.507681986235686e-06,0.001599529803479491
2.3851,2.5218129191581352e-06,0.0016812673443361193
2.4659999999999997,2.5427772218297584e-06,0.0007601548538102727
2.5924,2.5959404507600964e-06,0.0005949400303586188
2.7253,2.681199254736111e-06,0.0005485306087978217
2.8649999999999998,2.7638989212738294e-06,0.000599470119058311
3.0119,2.852911769976468e-06,0.000563980541821905
3.1664,2.9399368550960984e-06,0.0005463143359512642
3.3287,3.0307965734183572e-06,0.0005774077037967708
3.6788,3.1745357507793734e-06,0.0003267666316544296
4.0657,3.3790039977244353e-06,0.00036733413290915013
4.4933,3.6424946687652024e-06,0.00034131890870954637
4.7237,3.892211196494835e-06,0.0005219333397834386
4.9658,4.091502633915983e-06,0.00047869165942548785
5.2204999999999995,4.315144879476114e-06,0.0004220649798224979
5.488099999999999,4.5678342770314294e-06,0.0004126812155505515
5.7695,4.853186585530099e-06,0.0004106979486297954
6.0653,5.173625461953614e-06,0.00042194357549227296
6.3763,5.532446256821597e-06,0.0003526994453837267
6.5924,5.856004106364114e-06,0.0004178529895630674
6.7032,6.063682552352961e-06,0.000570357775110202
7.0469,6.361465323174274e-06,0.0003662165292693979
7.4082,6.842743147432996e-06,0.00034125023810601513
7.787999999999999,7.359898348507095e-06,0.0003375458929794829
8.1873,7.923103007974306e-06,0.0003209552433127626
8.607099999999999,8.518543804006864e-06,0.0003116999019793945
9.048399999999999,9.133222027537444e-06,0.00026750199567445555
9.5123,9.828589625591148e-06,0.0002927213777460936
10.0,1.0609042850337097e-05,0.00026543879815176
10.513,1.584406883270997e-05,0.00019882543262713363
11.052,1.613311884317809e-05,0.00021556080603469814
11.618,1.6304951503643127e-05,0.0001835627198532095
12.213999999999999,1.6318840236931266e-05,0.00018223223569202533
12.523,1.6251913526037762e-05,0.0002579049928585684
12.84,1.6124839703175597e-05,0.00027458637850103114
13.498999999999999,1.5781320715288996e-05,0.0002234281025538741
13.84,1.527814168427916e-05,0.0002874250565237635
14.190999999999999,6.850595578512263e-06,0.0004899108988804914
14.549999999999999,0.0,
14.918,0.0,
15.683,0.0,
16.487,0.0,
16.904999999999998,0.0,
17.332,0.0,
19.64,0.0,
