Energy,Value,Error
1e-07,0.0,
4.1399e-07,7.287332355891009e-13,0.22734482763702032
5.3158e-07,8.135285590970071e-12,0.20789559914938446
6.825599999999999e-07,2.5332507796048915e-11,0.09613055013867693
8.7643e-07,5.3423191566953064e-11,0.06888556568713915
1.1252999999999998e-06,1.2100175228561125e-10,0.04537865503565438
1.445e-06,1.745667819348921e-10,0.03488210646368484
1.8553999999999998e-06,2.1467591007305003e-10,0.03811716008706034
2.3824e-06,2.7448648250919106e-10,0.02734493408897521
3.059e-06,3.7417479570684007e-10,0.02668321863395392
3.9279e-06,4.90759295629482e-10,0.022990419687106144
5.043499999999999e-06,6.01138402402711e-10,0.019990036884297284
6.4759e-06,8.04691294195393e-10,0.017838866260409043
8.3153e-06,1.0716006985476455e-09,0.013967068744193777
1.0677e-05,1.4054203098239965e-09,0.0132460787420186
1.3710000000000001e-05,1.7562914284124281e-09,0.011344854708456682
1.7604e-05,2.2081519624436873e-09,0.010825727421007925
2.2603e-05,2.899714047092132e-09,0.008698659727691472
2.9023e-05,3.719428820440088e-09,0.006779255086327059
3.7266e-05,4.800351314774842e-09,0.006582379831516575
4.7851e-05,6.139316673733153e-09,0.006693726587345191
6.1442e-05,7.940050249196036e-09,0.005299668671783287
7.889299999999999e-05,1.0282784098358243e-08,0.004838793093030843
0.0001013,1.3170775545529754e-08,0.004793661301014938
0.00013006999999999998,1.689520587171938e-08,0.0032953783964872934
0.00016702,2.165813370596872e-08,0.0031752716251860643
0.00021444999999999998,2.77388077963522e-08,0.00294452213739024
0.00027536,3.5702592222797526e-08,0.00281598248984134
0.00035358,4.559846431088604e-08,0.0023165117943043942
0.000454,5.859644850369761e-08,0.002186720294685329
0.00058295,7.499334526396041e-08,0.0015674947448745017
0.0007485199999999999,9.622851784770199e-08,0.001349064187701479
0.00096112,1.2382079699990525e-07,0.0014514459692726192
0.0012341,1.5862920195230493e-07,0.001203913254081655
0.0015845999999999998,2.035085139666289e-07,0.0010962672216115273
0.0020347,2.6131924773217436e-07,0.001095117868472906
0.0022486999999999997,3.110039244094971e-07,0.001256246498262167
0.0024852,3.4364811520464345e-07,0.0012293299689547159
0.0026125999999999996,3.700977590744445e-07,0.0018622506872779069
0.0027465,3.88648671582094e-07,0.0018456217131433328
0.0030354,4.201312874512648e-07,0.0012861307070060216
0.0033545999999999997,4.6405832397279684e-07,0.0011051641640710797
0.0037074,5.133044163497976e-07,0.0010294266939954303
0.004307399999999999,5.818027162277628e-07,0.0007101978437885171
0.0055308,7.117170472921554e-07,0.0005555487405005398
0.0071017,9.123451472930424e-07,0.0004640730551146199
0.009118799999999998,1.1708175372605423e-06,0.0004802972929978668
0.010595,1.4269300892343165e-06,0.000522741425860144
0.011708999999999999,1.6132931948022304e-06,0.0006312418140147679
0.015033999999999999,1.9241597967384937e-06,0.00035366844381598935
0.019303999999999998,2.461252834329628e-06,0.0003175713368492684
0.021875,2.9493597180322913e-06,0.0003806295344131892
0.023579,3.245897197757821e-06,0.0004020391699875644
0.024176,3.408652990319386e-06,0.0008110336549505869
0.024787999999999998,3.4913458499421604e-06,0.0009178575720476695
0.026057999999999998,3.615961016797252e-06,0.0005628359624418185
0.027,3.7651500842752838e-06,0.0006120345987102231
0.028501,3.9296478065721475e-06,0.0005712744921839542
0.031827999999999995,4.247638130593071e-06,0.00037524108435928064
0.034307,4.621646290851942e-06,0.000409055123896234
0.040868,5.170008488441518e-06,0.0002661802390239196
0.046308999999999996,5.852154097001966e-06,0.0002795205605799983
0.052475,6.407994814471931e-06,0.00023387736751862497
0.056561999999999994,6.805081195657164e-06,0.0003252692773589432
0.06738,7.104045606624386e-06,0.0002284152883681042
0.07202399999999999,7.096726110110787e-06,0.0003518088407751112
0.079499,6.741018356058435e-06,0.0003094269349500107
0.08250299999999999,6.205767881838277e-06,0.00048078595922091696
0.086517,5.711912975523135e-06,0.0004081166368415509
0.098036,4.436729511865781e-06,0.0003026893931347829
0.11109,2.1414297325122324e-06,0.00042753198402096577
0.11678999999999999,1.952984106032349e-06,0.0006663514618529792
0.12276999999999999,1.4745032910627245e-06,0.0008605139903141799
0.12907,2.1469015975406373e-06,0.0008277613542705595
0.13569,2.2520778922611736e-06,0.0006862351045642267
0.14264,2.350539064694574e-06,0.000639842716689682
0.14995999999999998,2.446654968653166e-06,0.0006531394242007713
0.15764,2.5543773905477224e-06,0.0006211209091150036
0.16573,2.6494062866315276e-06,0.0005879518338267578
0.17421999999999999,2.7598112953456333e-06,0.0006261264388435586
0.18316,2.8715239405249804e-06,0.0006277316455774768
0.19255,2.9850297790590407e-06,0.000607048170798909
0.20242,3.1109243142532676e-06,0.0006008304771281307
0.2128,3.2178944663045306e-06,0.0005740644589989248
0.22371,3.3505061917262033e-06,0.0005362877188923357
0.23518,3.4333458601234514e-06,0.0005466632219963328
0.24724,3.87313803735843e-06,0.0005003109480966103
0.27324,6.682482913869709e-06,0.0002670933682150499
0.28725,2.1789270564002746e-05,0.00018795272013797846
0.29452,2.214015607820514e-05,0.0002662005696431234
0.29721,2.4204134072419556e-06,0.001716130630877347
0.29849,9.687654901982122e-07,0.004654953225774764
0.30196999999999996,7.240813320855108e-07,0.0033972867193847777
0.33372999999999997,3.4816026221582353e-06,0.0005013564192346513
0.36883,1.2789978625322103e-05,0.0001998488247655061
0.38774,4.510270139985616e-06,0.0005195122160656094
0.40762,2.867999971336066e-06,0.0007412627180007525
0.45049,7.762202425551749e-06,0.0002768484547003988
0.49787,1.139528567368234e-05,0.00019848543475490496
0.5234,1.1671731006235706e-05,0.000321209892837607
0.55023,1.3894764122024252e-05,0.0002656544008066296
0.57844,1.6047591196319727e-05,0.00027591453861591683
0.6081,1.8562810008773217e-05,0.00027748826059045687
0.63928,1.9323074751081672e-05,0.00022196133704189245
0.67206,1.628527204296551e-05,0.00025837242621745796
0.70651,3.580044124004288e-06,0.0006543836621331435
0.74274,6.137204841255997e-06,0.0005593483810664121
0.78082,1.8539241677610212e-05,0.0002376924320211816
0.82085,1.0555446761212999e-05,0.0003502248527493735
0.8629399999999999,2.281803818647209e-05,0.0001896894370807079
0.90718,8.85402579468116e-06,0.0003929461892299847
0.9616699999999999,1.3308206690970088e-05,0.00025031555127482254
1.0026,1.5326847147627393e-05,0.00026894661084058183
1.1079999999999999,1.7836836421796946e-05,0.00016957866480787372
1.1648,5.2340664939259085e-06,0.0005378039400623851
1.2246,3.263432084899652e-05,0.00016948405014892786
1.2873999999999999,1.0656641932744626e-05,0.00035561114392583087
1.3534,6.757456095565818e-06,0.00043883368176182735
1.4226999999999999,1.079900860785706e-05,0.00033320338051881596
1.4957,2.106544870118199e-06,0.0009425521981803646
1.5724,3.921855138913905e-06,0.0006473473379120632
1.653,6.0134300476886904e-06,0.0004901293653227122
1.7377,9.068583174633847e-06,0.0003426639244142904
1.8268,8.22699716232632e-06,0.0003980851340073029
1.9204999999999999,7.813464962429391e-06,0.0003843282857368595
2.019,7.31646699607139e-06,0.0003922738940151005
2.1225,6.379542031179531e-06,0.0004023016584514068
2.2313,4.026456474627446e-06,0.0006247517052634162
2.3068999999999997,3.5667582609151557e-06,0.0008311725001300272
2.3457,3.386934934843037e-06,0.0010040204816322061
2.3653,3.313183489003747e-06,0.0016488946580079727
2.3851,3.2743970669896954e-06,0.0016302255619269914
2.4659999999999997,3.1992500063363125e-06,0.0007798673591669328
2.5924,3.062262598605253e-06,0.0007014802819871467
2.7253,2.8992045666313237e-06,0.0006465868199667723
2.8649999999999998,2.744743829110119e-06,0.0006788453529418891
3.0119,2.6031537904062486e-06,0.000700391994503165
3.1664,2.4497065654499096e-06,0.0007058427559716252
3.3287,2.2916135552502304e-06,0.0007664178402752454
3.6788,2.035981085360332e-06,0.0005311011153810259
4.0657,1.7763126837162426e-06,0.0005329346040171157
4.4933,1.5282613493624004e-06,0.0006482488325215544
4.7237,1.3977611656642939e-06,0.0008408590109947333
4.9658,1.3275964341114212e-06,0.000816124976408898
5.2204999999999995,1.2633943800690901e-06,0.0009386767769578732
5.488099999999999,1.2111854744370103e-06,0.0009668590561758699
5.7695,1.1606301921857198e-06,0.0008895859890078004
6.0653,1.1234324348179308e-06,0.0009481786675704764
6.3763,1.0928406279617316e-06,0.0007871153080025818
6.5924,1.0806916568284093e-06,0.0011475527957652927
6.7032,1.0784933939671746e-06,0.0016971467340751735
7.0469,1.0788990765314333e-06,0.0009098739158703243
7.4082,1.077931358186831e-06,0.0008802655090194607
7.787999999999999,1.1037497670536196e-06,0.0009757397951959246
8.1873,1.1334819664632417e-06,0.0008213729588975227
8.607099999999999,1.1413263494143511e-06,0.0007994579804881884
9.048399999999999,1.1478533348178374e-06,0.0008184899854727555
9.5123,1.1827443094593356e-06,0.0006819173585601709
10.0,1.4647502604530114e-06,0.00065674497979322
10.513,2.5871310263101367e-06,0.0005513852176860573
11.052,2.734933748343254e-06,0.0005743899170107361
11.618,2.879631445081278e-06,0.0005155807326770821
12.213999999999999,3.0332251337003887e-06,0.0005161866028736932
12.523,3.1842146960261436e-06,0.0006387382342437339
12.84,3.270894930057922e-06,0.0005398739078027092
13.498999999999999,3.2990544123403583e-06,0.000414009954248635
13.84,2.9454213719981634e-06,0.0006519805712787463
14.190999999999999,1.0325580584383901e-06,0.0011097291623128906
14.549999999999999,0.0,
14.918,0.0,
15.683,0.0,
16.487,0.0,
16.904999999999998,0.0,
17.332,0.0,
19.64,0.0,
