Energy,Value,Error
1e-07,0.0,
4.1399e-07,0.0,
5.3158e-07,0.0,
6.825599999999999e-07,0.0,
8.7643e-07,0.0,
1.1252999999999998e-06,1.094767040487782e-11,0.046438161382036616
1.445e-06,2.6606280109013843e-11,0.03169919149702446
1.8553999999999998e-06,3.405851665983581e-11,0.03284752686809047
2.3824e-06,4.0745567704570824e-11,0.0230319318985678
3.059e-06,5.440001266078481e-11,0.02577565550737221
3.9279e-06,6.652264784914693e-11,0.02168272577876369
5.043499999999999e-06,8.787893472043388e-11,0.01823127506240944
6.4759e-06,1.1656971714436197e-10,0.016340134850016414
8.3153e-06,1.459333236373112e-10,0.013235523526762855
1.0677e-05,1.921700291060062e-10,0.011436903877359501
1.3710000000000001e-05,2.458087482301617e-10,0.011192975642935416
1.7604e-05,3.090559177365053e-10,0.009255836778394285
2.2603e-05,3.9038258338093337e-10,0.007445481228143506
2.9023e-05,5.081643667410092e-10,0.00913578481629802
3.7266e-05,6.534263460818364e-10,0.007040377592520696
4.7851e-05,8.368321467147622e-10,0.006063958388120225
6.1442e-05,1.0822110994561824e-09,0.006136152832294395
7.889299999999999e-05,1.3929679468367782e-09,0.004583281232523004
0.0001013,1.770937213765053e-09,0.004474848443308969
0.00013006999999999998,2.298361450437788e-09,0.004315258846137067
0.00016702,2.946709935746474e-09,0.0032213379929637714
0.00021444999999999998,3.7724636242730695e-09,0.0032528834969983347
0.00027536,4.8612447566376206e-09,0.002467810509176601
0.00035358,6.23169424660948e-09,0.002046076016502895
0.000454,8.011645193622989e-09,0.00197615354870751
0.00058295,1.0268438665041351e-08,0.001676929359623756
0.0007485199999999999,1.3183651227954869e-08,0.0015247768190778672
0.00096112,1.694220904232828e-08,0.0012912106900523203
0.0012341,2.1759811504452785e-08,0.0012461484657030509
0.0015845999999999998,2.7870657185776893e-08,0.00106358258138996
0.0020347,3.588373277787045e-08,0.0010240161196713683
0.0022486999999999997,1.703808485427536e-08,0.0013003122783462643
0.0024852,1.8852052506213213e-08,0.0012846126064161509
0.0026125999999999996,1.0123668449962007e-08,0.0017533372764430876
0.0027465,1.0657119410755731e-08,0.0016468574129208768
0.0030354,2.299016481829332e-08,0.0012871897326796598
0.0033545999999999997,2.5395699611989392e-08,0.0011950937397273674
0.0037074,2.8104763598479496e-08,0.0010497089411801814
0.004307399999999999,4.7826683755523085e-08,0.0008171484705969208
0.0055308,9.743946786964283e-08,0.0006666817709326922
0.0071017,1.2510974580567793e-07,0.0004613252215797407
0.009118799999999998,1.6063043837941653e-07,0.0004888667152407473
0.010595,1.1762797805416611e-07,0.0005193742233575538
0.011708999999999999,8.871547287483686e-08,0.0005670536414007557
0.015033999999999999,2.649059708734009e-07,0.00033987869887785533
0.019303999999999998,3.4003180867732095e-07,0.00030589697114194903
0.021875,2.046592558643573e-07,0.0003730840628458967
0.023579,1.3573847759249113e-07,0.0004423560804099148
0.024176,4.7585100071514506e-08,0.0008543476086179478
0.024787999999999998,4.869478239979992e-08,0.0007939057966177038
0.026057999999999998,1.0116681501870717e-07,0.0005910177990386029
0.027,7.495688864091835e-08,0.0006849743417990281
0.028501,1.195727292752001e-07,0.0005186123559723554
0.031827999999999995,2.649837466277345e-07,0.0003459776147422283
0.034307,1.9735986786941297e-07,0.0004053266486378927
0.040868,5.225059649535541e-07,0.00022578681551502607
0.046308999999999996,4.3329126652642936e-07,0.0002547271074066805
0.052475,4.910019331542756e-07,0.000258293918682547
0.056561999999999994,3.253952849724702e-07,0.00031322055792934244
0.06738,8.611303129915282e-07,0.00018424450109905577
0.07202399999999999,3.6978642183844326e-07,0.0002775004380787812
0.079499,5.951666677593172e-07,0.00022816971290151255
0.08250299999999999,2.3914014690374356e-07,0.0003176285534705084
0.086517,3.1966270080552774e-07,0.00032383539517476164
0.098036,9.159110716112341e-07,0.00019382266890750132
0.11109,2.54109419127011e-07,0.00036132026441679926
0.11678999999999999,5.038635880219141e-08,0.0008325466134642055
0.12276999999999999,5.289057587293974e-08,0.0007518012505138122
0.12907,5.580755740138438e-08,0.0007654248492053756
0.13569,5.8759624645501294e-08,0.0006761372904504346
0.14264,6.154707144749878e-08,0.0007387255744636042
0.14995999999999998,6.456514705919147e-08,0.0007159752112074159
0.15764,6.789381520890598e-08,0.0006724155325245817
0.16573,7.16043034738973e-08,0.0006974471714625962
0.17421999999999999,7.504672890435106e-08,0.0007066858614405978
0.18316,7.909321391489664e-08,0.0006016761299488916
0.19255,8.301275398379513e-08,0.0006323970497917697
0.20242,8.726032029570702e-08,0.0004983623597105411
0.2128,9.172187827252269e-08,0.0006164705607933248
0.22371,9.648631283198288e-08,0.0005691852964776342
0.23518,1.0147244903635104e-07,0.0005207715589838245
0.24724,1.0672018749952621e-07,0.0005883946344303627
0.27324,2.2982993152029642e-07,0.0003761132241362912
0.28725,1.2392730086750568e-07,0.0004560341098896065
0.29452,6.436630533413278e-08,0.0008075662884081194
0.29721,2.3773406463739187e-08,0.0011333624978698753
0.29849,1.1328411968785284e-08,0.0015809341241591905
0.30196999999999996,3.0724329367879194e-08,0.0009291030393386805
0.33372999999999997,2.809009702699542e-07,0.0003026893923581856
0.36883,3.1036515740166387e-07,0.0003469289656458102
0.38774,1.6729063471865672e-07,0.0004516173948406702
0.40762,1.7605208822251624e-07,0.00045791366832497295
0.45049,3.8061338310738346e-07,0.0002988670759448157
0.49787,4.2023685376907905e-07,0.00029477832462065473
0.5234,2.2597927926085004e-07,0.0003427335663127385
0.55023,2.3729876374071742e-07,0.00038978954346969864
0.57844,2.496465710971274e-07,0.00034474892891158727
0.6081,2.6249697362876024e-07,0.00033657659994913323
0.63928,2.761526917546876e-07,0.0002875959350300983
0.67206,2.900548667583894e-07,0.0003708809825298754
0.70651,3.0505569349857196e-07,0.0003250227219268788
0.74274,3.216231363196417e-07,0.00028971171010455123
0.78082,3.4061548822491015e-07,0.00028377555802425907
0.82085,3.599010864549987e-07,0.00027193201777151523
0.8629399999999999,3.785649277252579e-07,0.00030841190670356425
0.90718,3.921657068726934e-07,0.0002929180116640841
0.9616699999999999,4.726793806955655e-07,0.00022630147853663113
1.0026,3.3736398114636707e-07,0.00030768842429655115
1.1079999999999999,9.343181853677727e-08,0.0005342505124826091
1.1648,5.0491139914031917e-08,0.0007548042998807247
1.2246,5.3194889359601606e-08,0.000668887108281389
1.2873999999999999,5.5819560505141424e-08,0.0007536632212432686
1.3534,5.8589719088256496e-08,0.000687506580432778
1.4226999999999999,6.144681648035628e-08,0.0007253310194107867
1.4957,6.473013562793366e-08,0.0006484204857900799
1.5724,6.815173474009808e-08,0.0006563693402274276
1.653,7.155053702716376e-08,0.0007257726211259312
1.7377,7.523980681188896e-08,0.0007303097331434981
1.8268,7.914011183864511e-08,0.0006477780858203556
1.9204999999999999,8.335391600539063e-08,0.0006912027370678867
2.019,8.777326353073405e-08,0.0005888292132449452
2.1225,9.212431021236764e-08,0.0006043460407236646
2.2313,9.6168125107898e-08,0.0005787463490734426
2.3068999999999997,6.672474355618475e-08,0.0006847939379751958
2.3457,3.434386789647233e-08,0.0009723241293280811
2.3653,1.732308120767452e-08,0.001369285614005176
2.3851,1.75403485282256e-08,0.0014881142171778725
2.4659999999999997,7.160780817880523e-08,0.0006809969063941919
2.5924,1.1188097772029047e-07,0.0005373500816046552
2.7253,1.177813706443592e-07,0.0004863628122610975
2.8649999999999998,1.236702394867335e-07,0.0005380169338410576
3.0119,1.301299177168038e-07,0.0005163703441560438
3.1664,1.368996522464819e-07,0.0005106942953157171
3.3287,1.4362321023955673e-07,0.00044710290058647795
3.6788,3.0981281666406313e-07,0.0003369389480290743
4.0657,3.423253348841496e-07,0.0002843952706702701
4.4933,3.7831334402466037e-07,0.000270155415210765
4.7237,2.0374476205076193e-07,0.0003548095540213106
4.9658,2.1404239522830308e-07,0.0004084969432673195
5.2204999999999995,2.2514982155481464e-07,0.00032313903579395337
5.488099999999999,2.3669948857973224e-07,0.0003547934513749428
5.7695,2.489065574951385e-07,0.0003160994428574862
6.0653,2.6134787536010014e-07,0.0003584144553692755
6.3763,2.7479486801904354e-07,0.000315219263950725
6.5924,1.90982370973984e-07,0.0003583095127333442
6.7032,9.789022534109227e-08,0.0006029018470768067
7.0469,3.036713840082137e-07,0.0002927100271215775
7.4082,3.1918199750246997e-07,0.00036057594810724356
7.787999999999999,3.353808632380728e-07,0.00026104093272062804
8.1873,3.52939790965368e-07,0.0003123046885820639
8.607099999999999,3.708326706767357e-07,0.0002793150442847699
9.048399999999999,3.898737136296734e-07,0.00027026831999820675
9.5123,4.0997353370126166e-07,0.00028108852681447364
10.0,4.309713027209829e-07,0.0003093891161643051
10.513,1.0193078606642666e-06,0.00016525492180478
11.052,1.0710887857954782e-06,0.00017067903899463434
11.618,1.124343657915299e-06,0.000149781563313541
12.213999999999999,1.18429612527885e-06,0.00017329132227869855
12.523,6.139113850273711e-07,0.00021498720602979607
12.84,6.300743984314176e-07,0.0002246715714961635
13.498999999999999,1.3093181310748268e-06,0.0001621975526765442
13.84,6.774288355886215e-07,0.00021322399683096384
14.190999999999999,3.177124203491843e-07,0.0003250761472863444
14.549999999999999,0.0,
14.918,0.0,
15.683,0.0,
16.487,0.0,
16.904999999999998,0.0,
17.332,0.0,
19.64,0.0,
