Energy,Value,Error
1e-07,0.0,
4.1399e-07,0.0,
5.3158e-07,0.0,
6.825599999999999e-07,0.0,
8.7643e-07,5.883757738640325e-13,0.5751430124294413
1.1252999999999998e-06,4.46939871409095e-12,0.22652158751591586
1.445e-06,7.663815047085506e-12,0.14261488104698655
1.8553999999999998e-06,1.4952178586303587e-11,0.10051891564229533
2.3824e-06,2.9621511044740245e-11,0.07549188912967185
3.059e-06,4.963799049802908e-11,0.06245030167962006
3.9279e-06,7.15734357146292e-11,0.048592877864041706
5.043499999999999e-06,1.0768822300408095e-10,0.043016139613019574
6.4759e-06,1.8610875552028686e-10,0.035679697912251396
8.3153e-06,2.7864291518006796e-10,0.02416930167926836
1.0677e-05,3.928611954281319e-10,0.0240963790633065
1.3710000000000001e-05,5.805376800075805e-10,0.021673689645796242
1.7604e-05,7.926195203139989e-10,0.01699363951243504
2.2603e-05,1.1409427790379277e-09,0.012795544655011558
2.9023e-05,1.5747404717957747e-09,0.011552181329026441
3.7266e-05,2.2271501740398573e-09,0.009839379350050066
4.7851e-05,3.091492442028672e-09,0.00965718807543874
6.1442e-05,4.207283470844498e-09,0.006786617390867537
7.889299999999999e-05,5.748552863990846e-09,0.0067998934811131515
0.0001013,7.806481680913033e-09,0.005555945145800171
0.00013006999999999998,1.0482812498030735e-08,0.004150841819604769
0.00016702,1.401900899570886e-08,0.004126917308422502
0.00021444999999999998,1.8655389685553348e-08,0.003482722834620011
0.00027536,2.5027154233356517e-08,0.0028330546447948835
0.00035358,3.2741525896867416e-08,0.0026918678827987617
0.000454,4.3268862366234306e-08,0.002249136026057658
0.00058295,5.67523412568243e-08,0.0019280740463392067
0.0007485199999999999,7.438916355239357e-08,0.0015078051191918876
0.00096112,9.70526178588395e-08,0.001437483907425093
0.0012341,1.267968434493642e-07,0.0013468342201161888
0.0015845999999999998,1.640019557189132e-07,0.001274868162529264
0.0020347,2.1308921368909205e-07,0.0010771940171647877
0.0022486999999999997,2.5431759328246343e-07,0.0014379331033998767
0.0024852,2.820003940331069e-07,0.001440889567800299
0.0026125999999999996,3.0380052414175975e-07,0.0017349995669095365
0.0027465,3.209824128050838e-07,0.001805790862537686
0.0030354,3.450616916823364e-07,0.0013457895645869566
0.0033545999999999997,3.813329614015898e-07,0.0010851807035830096
0.0037074,4.234120930941153e-07,0.001362477670237379
0.004307399999999999,4.79547967804237e-07,0.0008647458699202862
0.0055308,5.856813153759189e-07,0.0006823555881104395
0.0071017,7.474550787977558e-07,0.0005171142649066194
0.009118799999999998,9.510500608669976e-07,0.00046015984464144465
0.010595,1.1481085555220369e-06,0.0005492307391475073
0.011708999999999999,1.2870287732330266e-06,0.000685246335053004
0.015033999999999999,1.5166015204787632e-06,0.000360118738792776
0.019303999999999998,1.909838276335542e-06,0.0003344139915220411
0.021875,2.285501204994063e-06,0.00045648506364091314
0.023579,2.540294633536298e-06,0.0005251670252668666
0.024176,2.6864295887557156e-06,0.0008206001043231374
0.024787999999999998,2.7580951828882415e-06,0.0007937209761412717
0.026057999999999998,2.8838043443517308e-06,0.0005605366537788221
0.027,3.0895302421453462e-06,0.0006707928083486891
0.028501,3.208935765333591e-06,0.0005136971101485211
0.031827999999999995,2.165233344822035e-06,0.000444920253587787
0.034307,3.0834264245826555e-06,0.0004392708415902676
0.040868,3.4075430187307243e-06,0.000247714524695827
0.046308999999999996,3.712882588307708e-06,0.00029387214349293263
0.052475,3.995186146550002e-06,0.00028190673415774323
0.056561999999999994,4.248855643900939e-06,0.00035157326417086627
0.06738,4.64786499594012e-06,0.00018886151733911859
0.07202399999999999,6.234336517127414e-06,0.00028819186292862854
0.079499,2.1133944621235558e-05,0.0001467329714015592
0.08250299999999999,3.8013651391785174e-05,0.0001481782500227577
0.086517,2.9307591192457923e-05,0.00018516729921266143
0.098036,4.425908547273852e-06,0.0002737032057716756
0.11109,1.0805070933787622e-07,0.002761771436538927
0.11678999999999999,1.6131050612413637e-07,0.0035262503315761375
0.12276999999999999,3.490666138456825e-07,0.0024387121736500505
0.12907,5.476472430465785e-07,0.0019127306960781687
0.13569,7.785978622470922e-07,0.001534242023082806
0.14264,1.0322105280116189e-06,0.0012429916820672574
0.14995999999999998,1.293583042326251e-06,0.001021702990060709
0.15764,1.5592586225242694e-06,0.000967920439375917
0.16573,1.8179229008905963e-06,0.000901039010280029
0.17421999999999999,2.1168372806642537e-06,0.0007649163870160012
0.18316,2.450583741825029e-06,0.0007369777079962306
0.19255,2.4966336289258226e-06,0.0007337788042938453
0.20242,1.6600839781846412e-06,0.0010046390974456194
0.2128,1.4156930099584783e-06,0.0010417027865861836
0.22371,3.0278116975342694e-06,0.0007176353307980075
0.23518,3.5163884264322583e-06,0.000651110038620113
0.24724,3.947539506340006e-06,0.000572401861816518
0.27324,3.8124214230521895e-06,0.00036499096129207566
0.28725,3.205902011813315e-06,0.0007748363441479438
0.29452,2.145601368852509e-06,0.0013226874454720814
0.29721,4.191824798146267e-06,0.0011182167791074142
0.29849,4.430173631820652e-06,0.0020262259549213534
0.30196999999999996,4.637810708481051e-06,0.0011653595395840948
0.33372999999999997,5.705199280890266e-06,0.0003331651435009517
0.36883,1.4584177090832312e-05,0.00017987758630181311
0.38774,1.4237944080781486e-05,0.00025094169619855873
0.40762,3.761932882233226e-06,0.0007244542612574936
0.45049,5.8017968614072505e-06,0.00035161389891954467
0.49787,7.133422156767128e-06,0.0002890046165454588
0.5234,8.043285096367125e-06,0.0004293518722058337
0.55023,8.455888226586935e-06,0.00037096909535693016
0.57844,8.69976965198537e-06,0.00037258384591827716
0.6081,7.676337132092231e-06,0.00038531255208831074
0.63928,1.089189360634556e-05,0.0003493671049067796
0.67206,1.3010524901178862e-05,0.00030879791286719083
0.70651,2.57297183677687e-05,0.00019579067788702778
0.74274,4.757730683045556e-06,0.000607504509026345
0.78082,6.994078007231041e-06,0.00045607844104629097
0.82085,7.312406948425153e-06,0.00041865780046344516
0.8629399999999999,8.566488397384942e-06,0.000344124251836773
0.90718,8.66966421804182e-06,0.0003760603469731053
0.9616699999999999,6.168467240437327e-06,0.0004127636046946723
1.0026,5.661080349981374e-06,0.0005308782696441569
1.1079999999999999,6.435512339338318e-06,0.0002856117141987999
1.1648,7.495048352437717e-06,0.0004473087295269808
1.2246,7.306589014351469e-06,0.00042112248233101753
1.2873999999999999,8.49371048884732e-06,0.0003758795578502649
1.3534,6.6449963313091165e-06,0.000432614568709365
1.4226999999999999,7.470230641020778e-06,0.00041374254622594575
1.4957,7.185796331894229e-06,0.0004076810706669502
1.5724,7.060104010445742e-06,0.00036989662414586676
1.653,5.563159070958148e-06,0.000490367200311848
1.7377,3.94257990316038e-06,0.0005619936023418319
1.8268,2.940523032409559e-06,0.0006743292905094898
1.9204999999999999,2.68749658870553e-06,0.0007168856131409356
2.019,2.4248887665983745e-06,0.0006184791911326132
2.1225,2.1508915541293513e-06,0.0006901554636367434
2.2313,1.905447431408268e-06,0.000801933558810066
2.3068999999999997,1.7481507497993412e-06,0.0010260579277997191
2.3457,1.5908878491455325e-06,0.0014157029406728402
2.3653,1.4904971154100766e-06,0.0024927783550293425
2.3851,1.4499265698103194e-06,0.0024185179354104455
2.4659999999999997,1.375701367233093e-06,0.0011721999980738099
2.5924,1.2923901200563114e-06,0.000948924090861524
2.7253,1.2126743819370096e-06,0.000950037109541664
2.8649999999999998,1.145380801855174e-06,0.0009498440475099324
3.0119,1.0851408119634844e-06,0.0010142760632737618
3.1664,1.0370420849321915e-06,0.0010484176061449984
3.3287,9.824199202703602e-07,0.0011517317638893177
3.6788,9.310448579282251e-07,0.0007653418382573629
4.0657,9.03818846161428e-07,0.0006976837130309602
4.4933,8.089948342854793e-07,0.00090718445064972
4.7237,8.620884127096569e-07,0.0010348400956408726
4.9658,8.966540698332063e-07,0.0010804566799340054
5.2204999999999995,9.304439261248138e-07,0.0010771076024732533
5.488099999999999,9.300126499669163e-07,0.0011473661178565417
5.7695,8.383110601833107e-07,0.001020714308050505
6.0653,8.06546779683649e-07,0.0010594082006626898
6.3763,8.159620603065323e-07,0.0010531262545421655
6.5924,8.311623545844071e-07,0.0011653488574796132
6.7032,8.414770322673898e-07,0.0017590366876452284
7.0469,8.547219774210085e-07,0.0010033026556897078
7.4082,8.73171228995358e-07,0.0010456583618233784
7.787999999999999,9.354036982524522e-07,0.0007782533390968934
8.1873,9.95661967796541e-07,0.0009355486957257352
8.607099999999999,1.0011844120295145e-06,0.0009939937087899704
9.048399999999999,1.0113318775026885e-06,0.0008267665138716055
9.5123,1.04667122838128e-06,0.0008287358066102663
10.0,1.271151499109228e-06,0.0008316657789115463
10.513,2.1659457138492263e-06,0.0005491680068231892
11.052,2.2037031032881637e-06,0.0005790707931331238
11.618,2.243148572221226e-06,0.0005401047611230745
12.213999999999999,2.251770403339378e-06,0.0006688463065269601
12.523,2.3582481654621817e-06,0.0007944943562430999
12.84,2.416576206786915e-06,0.000785836547987119
13.498999999999999,2.419348141128898e-06,0.0004920748760189785
13.84,2.183764092634039e-06,0.0007556941597017578
14.190999999999999,7.381883529733695e-07,0.0012965215098421673
14.549999999999999,0.0,
14.918,0.0,
15.683,0.0,
16.487,0.0,
16.904999999999998,0.0,
17.332,0.0,
19.64,0.0,
