Energy,Value,Error
1e-07,6.3715932318003295e-12,0.10049396134576803
4.1399e-07,2.1043656060689813e-10,0.01968799546349527
5.3158e-07,1.3683807014076138e-10,0.02549885750118094
6.825599999999999e-07,2.1000407111391254e-10,0.021432587428074454
8.7643e-07,2.9928919387843205e-10,0.014999259119441902
1.1252999999999998e-06,4.261310577427186e-10,0.01305190011825074
1.445e-06,5.811762157708304e-10,0.010012428269313478
1.8553999999999998e-06,7.993271875677576e-10,0.010427376916696096
2.3824e-06,1.0368330375135556e-09,0.008154260802269025
3.059e-06,1.3815716287222879e-09,0.00784696541182253
3.9279e-06,1.8059304953912186e-09,0.0067162079363983565
5.043499999999999e-06,2.336758477789487e-09,0.006525746126668917
6.4759e-06,2.9755882311879764e-09,0.005082745446435068
8.3153e-06,3.772379700627695e-09,0.004721163425485746
1.0677e-05,4.7187774189465555e-09,0.0041611598550837245
1.3710000000000001e-05,5.7702560430889964e-09,0.003794728479940083
1.7604e-05,7.0388764364845095e-09,0.0033557812030170233
2.2603e-05,8.570322965947062e-09,0.0031273855466806217
2.9023e-05,1.0417871894619941e-08,0.0030364610002857765
3.7266e-05,1.2580310199363811e-08,0.0026106100892088566
4.7851e-05,1.5021514609032502e-08,0.0023421437309828056
6.1442e-05,1.7850242627164174e-08,0.0020527996026640915
7.889299999999999e-05,2.1152126788421384e-08,0.0020245003081673183
0.0001013,2.4870147782881555e-08,0.001825709855816341
0.00013006999999999998,2.9239640636376873e-08,0.001551509507455961
0.00016702,3.3999212017224336e-08,0.0015634637181357685
0.00021444999999999998,3.9363319231886194e-08,0.0014982467562479273
0.00027536,4.5483376169712155e-08,0.0015201668408737876
0.00035358,5.220071358132784e-08,0.0012160051452625986
0.000454,5.961140515582528e-08,0.0012919811785367574
0.00058295,6.779186791514027e-08,0.0010482038451550373
0.0007485199999999999,7.66336162418174e-08,0.0010006686347736103
0.00096112,8.619393677421052e-08,0.001017722943187847
0.0012341,9.675784897771264e-08,0.0009390176582616147
0.0015845999999999998,1.077984869835085e-07,0.0008514469470647887
0.0020347,1.197741546676037e-07,0.0008669649142752015
0.0022486999999999997,5.1457719852659135e-08,0.001274360591733146
0.0024852,5.3595391004688294e-08,0.0011899976278664317
0.0026125999999999996,2.7576914125227315e-08,0.0014439230619195719
0.0027465,2.813011012023619e-08,0.0015153516625883534
0.0030354,5.779256714817045e-08,0.0011104124954511767
0.0033545999999999997,5.998203848914678e-08,0.0011723103591524853
0.0037074,6.21661327517337e-08,0.0011240352151161061
0.004307399999999999,9.735953815010089e-08,0.0008515731312104866
0.0055308,1.7301879554659192e-07,0.000676034789255564
0.0071017,1.8480645615433775e-07,0.0006075876822397782
0.009118799999999998,1.9313405723345224e-07,0.0006345698713485036
0.010595,1.1777290707829971e-07,0.0008255424448739504
0.011708999999999999,8.13248965973893e-08,0.0008286417193263178
0.015033999999999999,2.0280016681619974e-07,0.0006046935060159358
0.019303999999999998,4.119066861700804e-07,0.00031338938684525187
0.021875,6.061802100707513e-06,8.07955485477604e-05
0.023579,2.1756326914868856e-08,0.0019628854031308405
0.024176,1.1118276679501935e-09,0.009859596123383788
0.024787999999999998,3.177056341088844e-09,0.006042627684584881
0.026057999999999998,1.6252932964159457e-08,0.0024286098207502555
0.027,2.148568509930869e-08,0.0022552857243514964
0.028501,4.99605187702789e-08,0.0013611225600424163
0.031827999999999995,1.653558970117731e-07,0.0007401021229293004
0.034307,1.5662521539154008e-07,0.0008275899475930175
0.040868,4.759193504813306e-07,0.0004047471066485689
0.046308999999999996,4.074931685650198e-07,0.0004191762716654294
0.052475,4.3099652298244013e-07,0.0004011421032826229
0.056561999999999994,2.612898010304223e-07,0.000533115049486297
0.06738,7.714632180256266e-07,0.00032017521795307157
0.07202399999999999,2.952253389843843e-07,0.000517086784370198
0.079499,4.4271545838144167e-07,0.0003988736047325733
0.08250299999999999,1.711622203564843e-07,0.0006058344737087016
0.086517,2.1437429726860037e-07,0.0005787177376745888
0.098036,5.012362329941891e-07,0.0003807024814908015
0.11109,2.6550392660446847e-06,0.00011194359997474451
0.11678999999999999,9.704608111713799e-07,0.0002220516015876602
0.12276999999999999,6.770107706300692e-09,0.0043134342529688105
0.12907,1.8895412924451888e-08,0.0023215128327383145
0.13569,1.240155621987791e-07,0.0006629524824233484
0.14264,6.162569954414828e-08,0.001088837721338038
0.14995999999999998,1.0144164307840186e-07,0.00105047071055675
0.15764,1.3319967622775018e-07,0.0008599341103779541
0.16573,2.1508679514388374e-07,0.0005502248727228893
0.17421999999999999,7.901290122364335e-07,0.000270581733518307
0.18316,2.164862776440353e-07,0.0004522722573849673
0.19255,9.223474251075098e-08,0.0008937030071534493
0.20242,1.5899949362247508e-07,0.0007308708487138311
0.2128,2.0625165281213365e-07,0.000649324622189331
0.22371,2.9544041080154247e-07,0.0005165134401616247
0.23518,4.032521754644157e-07,0.0003863753415821461
0.24724,5.861950666989073e-07,0.00033975752098574553
0.27324,4.268379182709559e-06,0.0001168898986185267
0.28725,1.0198976812335593e-06,0.00019142025206313862
0.29452,3.847194127128158e-08,0.0016881845193219367
0.29721,2.9768457096920775e-08,0.0021226049595423763
0.29849,1.9440414399792884e-08,0.0024856479127237
0.30196999999999996,7.398606662889495e-08,0.0010987434118554077
0.33372999999999997,2.5404043883411752e-06,0.00014752161303877611
0.36883,3.722805609095981e-07,0.0004728017346457211
0.38774,3.1583970077897965e-07,0.0005128278191972181
0.40762,5.880359224673183e-07,0.0003718361464607125
0.45049,3.6298386017832146e-06,0.00013434405881917682
0.49787,3.021223326036658e-06,0.0001316843761706312
0.5234,7.626492256206336e-07,0.00031429785087251774
0.55023,3.4520255299399126e-06,0.00011542065895272691
0.57844,3.2516412072040096e-06,0.00011367218857893344
0.6081,4.450633466547373e-07,0.0003155659651205714
0.63928,6.275395315867407e-08,0.0011836489122811458
0.67206,2.4340273340643244e-07,0.0004902559100302916
0.70651,4.547122530821e-08,0.0013784266064947926
0.74274,6.368403811254428e-08,0.0012008705020973595
0.78082,7.183735117407536e-08,0.0009547845109790365
0.82085,1.6276026710248958e-07,0.0005438896030060925
0.8629399999999999,1.918973470971187e-08,0.001911492321563937
0.90718,1.2771036468444687e-08,0.0023862030372268314
0.9616699999999999,1.3210044741749531e-08,0.0023828775425191965
1.0026,8.666666251319607e-09,0.002978224329387383
1.1079999999999999,1.8985610474698708e-08,0.0021045418413630826
1.1648,8.62347268015512e-09,0.0027544024913855984
1.2246,8.137736810750559e-09,0.0035219633066567602
1.2873999999999999,7.510415251736816e-09,0.003143689860346637
1.3534,6.900406845674676e-09,0.003324933291562394
1.4226999999999999,6.496855274578968e-09,0.003181714302533709
1.4957,6.178943314578258e-09,0.0036563039872018572
1.5724,5.960304419978499e-09,0.0038947405048962956
1.653,5.8145277827526724e-09,0.0034788749093504386
1.7377,5.712060333739285e-09,0.004153884204735112
1.8268,5.558768152523417e-09,0.0036116513187042063
1.9204999999999999,5.230095912377709e-09,0.003996781761577013
2.019,4.720574318278138e-09,0.004045507502048097
2.1225,4.422850196428411e-09,0.004283811589975044
2.2313,4.30485001087399e-09,0.004405926747372179
2.3068999999999997,2.770837786254927e-09,0.005341889096031203
2.3457,1.3585364590206083e-09,0.008423646622480583
2.3653,6.802761942324421e-10,0.01041272342743809
2.3851,6.707792951130339e-10,0.010536309331078051
2.4659999999999997,2.6411918460906264e-09,0.004683565452082474
2.5924,3.821021664680757e-09,0.004336486396517022
2.7253,3.5661956756298916e-09,0.004128382547552316
2.8649999999999998,3.3725929234984872e-09,0.004472137113774531
3.0119,3.1984507708617884e-09,0.005246575035645555
3.1664,3.0437798606524497e-09,0.004861837156706182
3.3287,2.9028059043866858e-09,0.004865364764565484
3.6788,5.59785056584257e-09,0.0034910355298061243
4.0657,5.359274355768045e-09,0.0038027713553532324
4.4933,4.97735135461307e-09,0.003630963757684929
4.7237,2.37569194556325e-09,0.005800874409178814
4.9658,2.277091935194172e-09,0.005260438780614782
5.2204999999999995,2.2260370943551998e-09,0.00561343773175558
5.488099999999999,2.16664712333802e-09,0.006140083177952839
5.7695,2.118316604353147e-09,0.004987568739351748
6.0653,2.1016555990598354e-09,0.005163756925868513
6.3763,2.118907406836617e-09,0.005584554886920884
6.5924,1.4100208970063696e-09,0.0064083326252458595
6.7032,7.007556787633464e-10,0.009315013528624542
7.0469,2.1464234845495355e-09,0.005947243059957918
7.4082,2.1873057074520096e-09,0.004721342689710255
7.787999999999999,2.2145030063495723e-09,0.005257481746217608
8.1873,2.265050830909017e-09,0.005095821565437818
8.607099999999999,2.339004649913259e-09,0.004592062640893976
9.048399999999999,2.5229736819447375e-09,0.0045199774760070095
9.5123,2.8010115024346975e-09,0.0035641588135655
10.0,3.5392093773348062e-09,0.0034202006650595022
10.513,4.954384677111926e-09,0.0034822061186101758
11.052,5.244848985344599e-09,0.002697413123370809
11.618,5.656208496407023e-09,0.003044142863895397
12.213999999999999,6.160612477319277e-09,0.002994972209687704
12.523,3.2566480218903403e-09,0.003566285971717367
12.84,3.333380963177818e-09,0.0034067526665169253
13.498999999999999,6.427719990200896e-09,0.0025295050410890953
13.84,2.7660321127190195e-09,0.0036234198262091377
14.190999999999999,5.657439203177123e-10,0.008248663393618606
14.549999999999999,0.0,
14.918,0.0,
15.683,0.0,
16.487,0.0,
16.904999999999998,0.0,
17.332,0.0,
19.64,0.0,
