Energy,Value,Error
1e-07,4.315266766975829e-08,0.0013267057275193992
4.1399e-07,8.26071663711876e-08,0.001028630061000764
5.3158e-07,2.0962463640662358e-08,0.001750094925285778
6.825599999999999e-07,2.3551614768175875e-08,0.0020141722514936526
8.7643e-07,2.6606261265309358e-08,0.0014693302669107895
1.1252999999999998e-06,3.016844423244947e-08,0.0017416958342836796
1.445e-06,3.407877341152522e-08,0.0014334516027031663
1.8553999999999998e-06,3.862348083752039e-08,0.0014834350987485982
2.3824e-06,4.3718694608737795e-08,0.001306132128068808
3.059e-06,4.942728197586845e-08,0.0013309575631616597
3.9279e-06,5.6037172418881936e-08,0.0010944144243443664
5.043499999999999e-06,6.346084278346795e-08,0.0010071426815773177
6.4759e-06,7.169425120325296e-08,0.0011118585994035516
8.3153e-06,8.113669941082515e-08,0.0009268980897522493
1.0677e-05,9.25641194664868e-08,0.0008491459794367793
1.3710000000000001e-05,1.0339986130732158e-07,0.0008951297536080138
1.7604e-05,1.1666601418056742e-07,0.0008426053726184978
2.2603e-05,1.3182272871302407e-07,0.0007903135896040846
2.9023e-05,1.4893456787587632e-07,0.0006771803910105328
3.7266e-05,1.682925318475108e-07,0.0007645654414584953
4.7851e-05,1.895725008455661e-07,0.0006180470004216341
6.1442e-05,2.1384435361758025e-07,0.0007074209829150906
7.889299999999999e-05,2.4087930983696014e-07,0.0005594856975911643
0.0001013,2.711048941699833e-07,0.000506640878137203
0.00013006999999999998,3.047464946311055e-07,0.00046709843974728843
0.00016702,3.426742107523382e-07,0.00047480187697775323
0.00021444999999999998,3.846074728812759e-07,0.0004457620746140869
0.00027536,4.315010523854001e-07,0.00045328028017584414
0.00035358,4.834882650743611e-07,0.0004457284750554815
0.000454,5.404315179755089e-07,0.00039238247191761847
0.00058295,6.035320102723021e-07,0.0004089830193238297
0.0007485199999999999,6.727211020540019e-07,0.00032405867449559144
0.00096112,7.488063879379346e-07,0.00029752116221076394
0.0012341,8.307104082753834e-07,0.00032137578144642926
0.0015845999999999998,9.190919984924967e-07,0.0002709980032476923
0.0020347,1.0140266278624768e-06,0.0003078242172719451
0.0022486999999999997,4.3345662258315597e-07,0.00039598823825624644
0.0024852,4.5002611181752855e-07,0.0003680198336438185
0.0026125999999999996,2.3138778493745627e-07,0.0006584023387935768
0.0027465,2.3547956186524411e-07,0.0005924575154248521
0.0030354,4.836283333126959e-07,0.0004396939649577394
0.0033545999999999997,5.007328897008814e-07,0.00041277212433370045
0.0037074,5.182301498461616e-07,0.00039283758314744455
0.004307399999999999,8.096012760898932e-07,0.00030518916775646826
0.0055308,1.4368988798978484e-06,0.00024466491335786976
0.0071017,1.5419486983843684e-06,0.00019643000110538565
0.009118799999999998,1.64060207555838e-06,0.00020173911198247257
0.010595,1.0267110001804709e-06,0.0002769435012254576
0.011708999999999999,6.993534907148758e-07,0.00035753553002645277
0.015033999999999999,1.790071539727829e-06,0.00023504158460502253
0.019303999999999998,1.824234989121593e-06,0.00021108914301167688
0.021875,9.1181835583359e-07,0.0002886729934008283
0.023579,5.436243521937191e-07,0.0003904915685194353
0.024176,1.8025607953947432e-07,0.0007011164369743591
0.024787999999999998,1.7988523365143332e-07,0.0005609435199464468
0.026057999999999998,3.5729836630594693e-07,0.0004391648614027786
0.027,2.5204040419633335e-07,0.0005850061399214889
0.028501,3.8095154506466083e-07,0.00048514127451724994
0.031827999999999995,7.624683728396237e-07,0.0002780929266210509
0.034307,5.042919139966736e-07,0.00038874060369894353
0.040868,1.121129005304492e-06,0.0002868613366340026
0.046308999999999996,7.373042796546021e-07,0.00026894076432002357
0.052475,6.649919009791734e-07,0.0003168538957854387
0.056561999999999994,3.535349293927311e-07,0.0005189111139237529
0.06738,6.186175730409692e-07,0.0003138146952136677
0.07202399999999999,1.2546951426937274e-07,0.0007891306534114779
0.079499,6.203235253580609e-08,0.0011941324981983557
0.08250299999999999,3.735682110974016e-09,0.005032183096062306
0.086517,3.8486392390308326e-09,0.005313070435627712
0.098036,6.995496948793194e-08,0.0010973328813439311
0.11109,2.3215893731806976e-07,0.000662004543333331
0.11678999999999999,1.3325602359921132e-07,0.0007317426909503835
0.12276999999999999,1.4920994669503827e-07,0.0007019408490410303
0.12907,1.6180383050182692e-07,0.0007174155333935303
0.13569,1.6982814286902226e-07,0.0007237748386492265
0.14264,1.7410355851936873e-07,0.0005789627902152297
0.14995999999999998,1.7568719117673142e-07,0.0005658064049758837
0.15764,1.7334744387868378e-07,0.000613212823425461
0.16573,1.6861934870246856e-07,0.0007072462156448666
0.17421999999999999,1.5980803739805704e-07,0.000737409180866841
0.18316,1.4827575611665667e-07,0.0007668699019821574
0.19255,1.3355996482025476e-07,0.0008844552125264641
0.20242,1.1505858760151811e-07,0.0007922219328529552
0.2128,9.403188124270833e-08,0.0008409972246305225
0.22371,7.339644267059332e-08,0.0010485781547640777
0.23518,5.425386775022716e-08,0.0011262304641848464
0.24724,3.787405641821078e-08,0.0016164395713454001
0.27324,5.784988494041715e-08,0.001245928201625846
0.28725,3.3130676401513565e-08,0.0015929970739116195
0.29452,1.9979806358930607e-08,0.0019027014108647302
0.29721,7.985887038464648e-09,0.0037335900482433322
0.29849,3.9230043372238475e-09,0.005162659387978338
0.30196999999999996,1.1013559064797804e-08,0.0033336972080997324
0.33372999999999997,1.3290682052788162e-07,0.0007713696375253293
0.36883,2.1929235670746815e-07,0.0005967964012176995
0.38774,1.358939302426431e-07,0.000645435109048276
0.40762,1.1501961594394688e-07,0.0007914217677041443
0.45049,7.335842451460713e-08,0.0010847423509750273
0.49787,1.7411594157333995e-07,0.0007272024843515307
0.5234,1.1294520537309175e-07,0.0008931235272593115
0.55023,1.2449042089895865e-07,0.0007714033695203564
0.57844,1.2263805798171382e-07,0.0008796170785540941
0.6081,1.4937883414298587e-07,0.0007807396741981154
0.63928,2.2640031077563045e-07,0.0005718059800849535
0.67206,2.1864877041384307e-07,0.0006138076045770008
0.70651,1.1813757415075867e-07,0.0008034871451245585
0.74274,1.500705781085487e-07,0.0008098691055610826
0.78082,1.7807883933345222e-07,0.0006646684022238315
0.82085,1.7058379647711538e-07,0.0007418806087023616
0.8629399999999999,1.1328642964869066e-07,0.0008235599753510701
0.90718,2.1808408465372274e-07,0.0005972593670415125
0.9616699999999999,3.192430382820239e-07,0.00044260011446085434
1.0026,2.2762035238717683e-07,0.0006175408828272298
1.1079999999999999,6.943764766921804e-07,0.0002711014190068057
1.1648,1.8125633559148738e-07,0.0006321906476559793
1.2246,2.0939588027588728e-07,0.0005056851364923917
1.2873999999999999,1.8694191555701426e-07,0.0005779296816418838
1.3534,1.139095316953416e-07,0.0008615735908913424
1.4226999999999999,1.783866434107747e-07,0.0005402543629376029
1.4957,1.923070734794806e-07,0.000609575826927626
1.5724,2.8747023327320864e-07,0.0004502053244575663
1.653,1.3199197626477366e-07,0.0007190710009634001
1.7377,9.43954780447701e-08,0.000962644865355038
1.8268,1.3218826840183702e-07,0.0006905130787317894
1.9204999999999999,1.1050446604590825e-07,0.000749098781048556
2.019,1.5275848998613383e-07,0.0006145221865682815
2.1225,1.3885891654430096e-07,0.0006763499863932862
2.2313,1.8634505578038128e-07,0.000536496347903671
2.3068999999999997,4.598686477170758e-08,0.001163518680382143
2.3457,4.98703789261619e-08,0.0011495535864466434
2.3653,2.3990757427276626e-08,0.0015931564238844953
2.3851,2.521444154248261e-08,0.0017686724376019282
2.4659999999999997,9.990838092582451e-08,0.0007484231625498683
2.5924,1.2286318262818862e-07,0.0007848727173020844
2.7253,6.89851371322916e-08,0.0009638145983665222
2.8649999999999998,9.991609437694589e-08,0.0008440764043886092
3.0119,1.0649424408587273e-07,0.0007528716470406055
3.1664,8.727044839052737e-08,0.0008345648634632921
3.3287,1.6887518912871643e-07,0.0005626008545428764
3.6788,1.763413677417825e-07,0.000586522937247538
4.0657,2.715151851196298e-07,0.0004767069087530129
4.4933,1.648872402526809e-07,0.0005667884305483961
4.7237,9.193390466680084e-08,0.0008615871802011384
4.9658,7.203043053718046e-08,0.0009249273752698007
5.2204999999999995,6.473363734881387e-08,0.001007255141935208
5.488099999999999,8.076581557399491e-08,0.0007148549928659247
5.7695,6.697681308514531e-08,0.0008337898401555051
6.0653,6.31317800262145e-08,0.000837188947436454
6.3763,9.183717826592165e-08,0.0005691957158822194
6.5924,4.318650261979708e-08,0.0010165814885368144
6.7032,2.9258456667261844e-08,0.0011729020965623252
7.0469,5.490153299294056e-08,0.0008096403988885852
7.4082,5.858908835701181e-08,0.0007860724443237153
7.787999999999999,6.032840949798553e-08,0.000816039653349594
8.1873,6.33986589350078e-08,0.000882337060946631
8.607099999999999,5.861003426147494e-08,0.0007831720402457254
9.048399999999999,6.595197037665595e-08,0.0008158004612230815
9.5123,6.909992494852377e-08,0.0007555186078513276
10.0,7.165360842076805e-08,0.0007555867447307821
10.513,1.1362796666770768e-07,0.0006031619872148321
11.052,1.177920914062173e-07,0.0005776742188396051
11.618,1.1568040801488177e-07,0.0005266031256150345
12.213999999999999,1.1141083219825366e-07,0.000573340261590473
12.523,5.3908467166672554e-08,0.000793456103871195
12.84,5.386141251090775e-08,0.00072846745232738
13.498999999999999,1.106375021436816e-07,0.0005882465201093097
13.84,5.362570398601179e-08,0.0008893146775796715
14.190999999999999,1.7807337933779395e-08,0.0012555896968134957
14.549999999999999,0.0,
14.918,0.0,
15.683,0.0,
16.487,0.0,
16.904999999999998,0.0,
17.332,0.0,
19.64,0.0,
