Energy,Value,Error
1e-07,0.0,
4.1399e-07,0.0,
5.3158e-07,0.0,
6.825599999999999e-07,0.0,
8.7643e-07,3.6113358570776274e-14,1.0
1.1252999999999998e-06,1.0916175988781617e-11,0.04656125735615965
1.445e-06,2.6723986903108506e-11,0.03168143033956358
1.8553999999999998e-06,3.4077119130152744e-11,0.03330201686778713
2.3824e-06,4.0706723829770944e-11,0.022418627787697046
3.059e-06,5.4464725157510394e-11,0.025704945900180243
3.9279e-06,6.696596041661533e-11,0.02142215979627109
5.043499999999999e-06,8.799903148308623e-11,0.018449968774039305
6.4759e-06,1.1694360536502086e-10,0.01634874740294116
8.3153e-06,1.4608245111718035e-10,0.013246651802816627
1.0677e-05,1.9252530016447714e-10,0.0113943149527779
1.3710000000000001e-05,2.4625114873117733e-10,0.011239548659759183
1.7604e-05,3.099703941252665e-10,0.009355443627689603
2.2603e-05,3.910533720199693e-10,0.00747531855467007
2.9023e-05,5.100014437772038e-10,0.009087520963847934
3.7266e-05,6.548832759359309e-10,0.007051470415260477
4.7851e-05,8.388077826702545e-10,0.005978490673699881
6.1442e-05,1.0849870685682657e-09,0.006095689374995261
7.889299999999999e-05,1.396198569256815e-09,0.004667872500832807
0.0001013,1.7746999451289603e-09,0.0044757840270800734
0.00013006999999999998,2.304345843303347e-09,0.004329606054768176
0.00016702,2.953298989417719e-09,0.003239997679354725
0.00021444999999999998,3.781747263504996e-09,0.0032563578839688583
0.00027536,4.872222671060786e-09,0.0024775698606527815
0.00035358,6.245389861650532e-09,0.002036560166910936
0.000454,8.028868503483193e-09,0.0019700700236883898
0.00058295,1.0291721296769794e-08,0.0016657423197206631
0.0007485199999999999,1.3215793676089341e-08,0.001524691645394522
0.00096112,1.697924800445268e-08,0.001281054007230645
0.0012341,2.1809043670262535e-08,0.0012447166938360584
0.0015845999999999998,2.7945812440984136e-08,0.0010606492659727656
0.0020347,3.5957127841864504e-08,0.0010280804053757417
0.0022486999999999997,1.7077263656064733e-08,0.0013361629106357863
0.0024852,1.8893697871379787e-08,0.0012920056872788356
0.0026125999999999996,1.0142562521438903e-08,0.0017661772220758708
0.0027465,1.0683501781111336e-08,0.0016343297225427387
0.0030354,2.3038961819088268e-08,0.0012930317570406464
0.0033545999999999997,2.5455568228290207e-08,0.001186902650612342
0.0037074,2.8172078586735488e-08,0.0010284262755904051
0.004307399999999999,4.793802483139729e-08,0.0008072691639164912
0.0055308,9.766883376872137e-08,0.0006651356388828654
0.0071017,1.2539185768423785e-07,0.0004504970468903344
0.009118799999999998,1.6101113366092273e-07,0.0004949556228205594
0.010595,1.1788317984797764e-07,0.0005207584505967854
0.011708999999999999,8.892417861712815e-08,0.0005650487633767205
0.015033999999999999,2.655303893764033e-07,0.00033340320693737427
0.019303999999999998,3.4086149262836844e-07,0.0003037212482473461
0.021875,2.0560221323545207e-07,0.0003818395868857622
0.023579,1.4034770822594247e-07,0.0004344967683477068
0.024176,4.96065787070232e-08,0.0008346993236877026
0.024787999999999998,5.0820335267409696e-08,0.0008024717209532433
0.026057999999999998,1.0474677658580351e-07,0.0005590777682213965
0.027,7.201590004533154e-08,0.0007192051551477683
0.028501,1.143630675003737e-07,0.000541073068754293
0.031827999999999995,2.6544664896802583e-07,0.00033958489655709146
0.034307,1.9796065523193853e-07,0.000410634623687703
0.040868,5.276394437129384e-07,0.00022001186609245228
0.046308999999999996,4.465056231241357e-07,0.00023701854716411065
0.052475,4.809764292641502e-07,0.0002569125692806314
0.056561999999999994,3.25839141900549e-07,0.0003097450977088452
0.06738,8.639952876524521e-07,0.00018982577417997408
0.07202399999999999,3.720594015680028e-07,0.0002771183103146357
0.079499,6.038479603765037e-07,0.0002328645278506908
0.08250299999999999,2.458064815319274e-07,0.0003260521266336708
0.086517,3.2823014439353115e-07,0.00032950234274902894
0.098036,9.098998871059648e-07,0.0001946386841733918
0.11109,2.4680148054028656e-07,0.0003679988885711282
0.11678999999999999,5.079347260279005e-08,0.0008268724700429016
0.12276999999999999,5.34750096531592e-08,0.0007561720166962532
0.12907,5.6495552999607365e-08,0.0007609364240890324
0.13569,5.9554989708151095e-08,0.0006709626999886236
0.14264,6.24376620037261e-08,0.0007671075920209222
0.14995999999999998,6.581484184226842e-08,0.0007148751311208402
0.15764,6.900900937209918e-08,0.0006614022695964131
0.16573,7.269824809877642e-08,0.000706738358707903
0.17421999999999999,7.617075509358457e-08,0.0007143399934432459
0.18316,8.02455379389127e-08,0.0005963786286652032
0.19255,8.421119245153892e-08,0.0006343054994303209
0.20242,8.844143020128707e-08,0.00047314038898852833
0.2128,9.289605531018153e-08,0.0006100368671146423
0.22371,9.76117571764063e-08,0.0005750778766223943
0.23518,1.0261779355118986e-07,0.0005216793664095378
0.24724,1.0782631860698088e-07,0.0005857732272503555
0.27324,2.308795338793845e-07,0.0003784842052498753
0.28725,1.236018630872055e-07,0.0004754068654663553
0.29452,6.445664667006469e-08,0.0007849372130936665
0.29721,2.3801825153364177e-08,0.001194291305274555
0.29849,1.1340561718340395e-08,0.001550835358177185
0.30196999999999996,3.077270718352139e-08,0.0009422553920361305
0.33372999999999997,2.813112938514848e-07,0.0002907034043222588
0.36883,3.107298448995988e-07,0.0003635825899354967
0.38774,1.6703512851705086e-07,0.0004659883960128749
0.40762,1.7553263667035311e-07,0.0004598196973495875
0.45049,3.7791159731883643e-07,0.0003005960828155649
0.49787,4.199432143747076e-07,0.0002906319439126395
0.5234,2.2603184625855198e-07,0.00033727106658797086
0.55023,2.3783972432735295e-07,0.0003856490724369836
0.57844,2.5039804167281326e-07,0.0003387394120960775
0.6081,2.627206984599354e-07,0.00034275518479801373
0.63928,2.7644158194840264e-07,0.000289120709802685
0.67206,2.9061807140935724e-07,0.00037116631902285905
0.70651,3.055799103433436e-07,0.0003286049591311445
0.74274,3.2134438079558607e-07,0.0002972188063022633
0.78082,3.3748857885299263e-07,0.000282157032240955
0.82085,3.5459920044859873e-07,0.00027737418882608925
0.8629399999999999,3.722349202075996e-07,0.00031112220486212254
0.90718,3.9052926158004155e-07,0.0002922029912018792
0.9616699999999999,4.797702546307432e-07,0.00022951843765264902
1.0026,3.3951160760655977e-07,0.0003098860534536404
1.1079999999999999,9.398675448254562e-08,0.0005229536308566406
1.1648,5.061296363025435e-08,0.0007509526550620144
1.2246,5.329191811001014e-08,0.0006648302866101021
1.2873999999999999,5.58469110620722e-08,0.0007646218346831694
1.3534,5.873354505986731e-08,0.0006887295646683759
1.4226999999999999,6.174219339275443e-08,0.0007359568621027464
1.4957,6.499091098393194e-08,0.0006292672873676921
1.5724,6.828445882631889e-08,0.0006428902161076118
1.653,7.165332828253616e-08,0.0007322910007797804
1.7377,7.535116223501741e-08,0.0007265653425064674
1.8268,7.934354093467268e-08,0.0006367731598640018
1.9204999999999999,8.343062305003798e-08,0.0006909238726053572
2.019,8.758216105877319e-08,0.0005842795721663545
2.1225,9.190847787327689e-08,0.0005884303288614871
2.2313,9.684290909788017e-08,0.0005718403845162683
2.3068999999999997,6.713245989501028e-08,0.0006870396120532455
2.3457,3.450644049300216e-08,0.000958140306257862
2.3653,1.739372432752663e-08,0.0013849684705201394
2.3851,1.761620941737319e-08,0.0014539882083107756
2.4659999999999997,7.191275947199753e-08,0.0006777646101250287
2.5924,1.1219847439326158e-07,0.0005476464496334047
2.7253,1.1807594610624745e-07,0.000487562156088993
2.8649999999999998,1.240210482601266e-07,0.0005395379084773147
3.0119,1.3056357944942693e-07,0.0005183210051683029
3.1664,1.3729930061753963e-07,0.0005036490250167391
3.3287,1.440813677636775e-07,0.00045175369674503807
3.6788,3.107052858855076e-07,0.0003311309027051132
4.0657,3.4344943643487274e-07,0.0002814864634281916
4.4933,3.793024903318206e-07,0.00027140322627609674
4.7237,2.0416051762051124e-07,0.0003519841657775761
4.9658,2.1451104740579487e-07,0.00040299524032705466
5.2204999999999995,2.2561939155629005e-07,0.0003220766203608544
5.488099999999999,2.3710682404228296e-07,0.0003496653061711835
5.7695,2.4920522749675136e-07,0.00031964230984108804
6.0653,2.616007961345114e-07,0.00035431364390306767
6.3763,2.7503582254960727e-07,0.0003090673324011734
6.5924,1.9112642701786313e-07,0.00035753335892522656
6.7032,9.794664653156374e-08,0.0006136675009156695
7.0469,3.0386662645694984e-07,0.0002919901746609352
7.4082,3.1927838992772873e-07,0.00035940955962312945
7.787999999999999,3.3544527666883253e-07,0.0002607027276240243
8.1873,3.5307157555721403e-07,0.00031375282688844296
8.607099999999999,3.709814701508805e-07,0.00027630548175543716
9.048399999999999,3.9006335331392844e-07,0.0002709039217924114
9.5123,4.1032978564895764e-07,0.00028110901026844563
10.0,4.3152098786282876e-07,0.00031012829896938046
10.513,1.0189596701496247e-06,0.00016608521076512468
11.052,1.0707460539201277e-06,0.00017072380156352198
11.618,1.1239755414602068e-06,0.00014879539629622198
12.213999999999999,1.1837681407634516e-06,0.00017421061781396223
12.523,6.135489439467744e-07,0.00021187442272786706
12.84,6.296102857822797e-07,0.00022696817972055005
13.498999999999999,1.3080785941688896e-06,0.0001628124457761953
13.84,6.766138584518177e-07,0.00021361241901244254
14.190999999999999,3.1718343134414847e-07,0.0003243196112295568
14.549999999999999,0.0,
14.918,0.0,
15.683,0.0,
16.487,0.0,
16.904999999999998,0.0,
17.332,0.0,
19.64,0.0,
