Energy,Value,Error
1e-07,1.7581081805296362e-12,0.2451804246066379
4.1399e-07,5.3869615249077325e-11,0.03553798227688653
5.3158e-07,4.211239125310408e-11,0.04970577744474664
6.825599999999999e-07,6.460341512135235e-11,0.041317014412547474
8.7643e-07,9.551535289376171e-11,0.02819391329103274
1.1252999999999998e-06,1.4432084567333447e-10,0.020645061326108553
1.445e-06,2.0422679036296465e-10,0.01772743722077359
1.8553999999999998e-06,2.865168316918188e-10,0.017152760599458874
2.3824e-06,3.9227983452238556e-10,0.011968447256807574
3.059e-06,5.295525155398651e-10,0.010802311761123657
3.9279e-06,7.276102638793177e-10,0.011517762534453909
5.043499999999999e-06,9.51191234554843e-10,0.009000514932040422
6.4759e-06,1.2384188048211366e-09,0.008583219356840996
8.3153e-06,1.594671390425309e-09,0.007588984077405419
1.0677e-05,2.043600720913161e-09,0.006777321670757748
1.3710000000000001e-05,2.5999239500432167e-09,0.005856217232998546
1.7604e-05,3.2860860197527026e-09,0.004786322465806576
2.2603e-05,4.11385335415421e-09,0.004378667045728197
2.9023e-05,5.0957608888743766e-09,0.0044803721213133385
3.7266e-05,6.255237356308726e-09,0.0034011501782653495
4.7851e-05,7.681623948432667e-09,0.003173578945996471
6.1442e-05,9.360681164923313e-09,0.0028717729691845897
7.889299999999999e-05,1.1280778301472169e-08,0.0024657861755810863
0.0001013,1.3543364643955289e-08,0.002671052807822933
0.00013006999999999998,1.61526928979416e-08,0.0022546682325740954
0.00016702,1.909817907241647e-08,0.0019775958204469725
0.00021444999999999998,2.248283381372898e-08,0.001882045913776085
0.00027536,2.62713551412571e-08,0.0015672790260990155
0.00035358,3.055665002483501e-08,0.0014716409326035467
0.000454,3.5254298245521925e-08,0.0013487185477191442
0.00058295,4.047373646537107e-08,0.0013698693739006395
0.0007485199999999999,4.6126879959114826e-08,0.0012833237718829274
0.00096112,5.229025324434624e-08,0.0011356761302799675
0.0012341,5.895061121016659e-08,0.0010331515912810662
0.0015845999999999998,6.622464860921145e-08,0.0011475442041524893
0.0020347,7.400179604299897e-08,0.0009920643484519643
0.0022486999999999997,3.199589888766586e-08,0.0015529542726340792
0.0024852,3.335074766701202e-08,0.0016474120139170823
0.0026125999999999996,1.724453592084592e-08,0.0020873062600607058
0.0027465,1.7568429703680036e-08,0.0018404055019451884
0.0030354,3.6340190022280706e-08,0.0014215083807023795
0.0033545999999999997,3.785136774362962e-08,0.001374799618644601
0.0037074,3.920635144105869e-08,0.0014925826727689793
0.004307399999999999,6.198002661345525e-08,0.001045125860905556
0.0055308,1.1226541000955666e-07,0.0008023618193921571
0.0071017,1.2169119570738797e-07,0.0007954905683782535
0.009118799999999998,1.4681044101392981e-07,0.0006284178606690613
0.010595,6.449253230606155e-07,0.00024075207607377535
0.011708999999999999,8.812637163734033e-08,0.0007096123999870359
0.015033999999999999,1.6316672038750911e-07,0.0006117089020292267
0.019303999999999998,3.4475495178836064e-07,0.00044176611309464385
0.021875,1.9302333151753793e-07,0.000471596812988088
0.023579,1.3909825006965925e-07,0.0006238732867728989
0.024176,4.7674503645358584e-08,0.000940295383248033
0.024787999999999998,4.996329664629576e-08,0.001071824245005857
0.026057999999999998,1.0331398012216154e-07,0.000670745727858931
0.027,7.630939072147806e-08,0.0007613849658035467
0.028501,1.2215675527827132e-07,0.0006326801170698307
0.031827999999999995,2.985369493316973e-07,0.0003428033191462406
0.034307,4.073740168600381e-07,0.0003145076049884334
0.040868,2.261342382978674e-06,0.0001336301087351623
0.046308999999999996,1.053253307933532e-06,0.00021208261956233714
0.052475,4.6031655327851584e-08,0.0014239819065892622
0.056561999999999994,1.4361178338344555e-06,0.00016468508850372854
0.06738,1.5381288289661945e-06,0.00016602613035974996
0.07202399999999999,2.6313666731688103e-08,0.002267739916669362
0.079499,1.2747787789289224e-07,0.0006724976586830492
0.08250299999999999,8.675336644745331e-08,0.0009159865294663884
0.086517,3.8092972093610963e-07,0.0004310223960327829
0.098036,2.504674153147728e-06,0.00011428095869365412
0.11109,4.155410952557496e-08,0.0013765033203321697
0.11678999999999999,6.622572652869566e-08,0.0011786817184393475
0.12276999999999999,1.0284107891383819e-07,0.0009074168300747754
0.12907,1.873501989219037e-07,0.0007082565683337896
0.13569,2.2507060458741866e-07,0.0005550479130326758
0.14264,5.591039592435824e-07,0.00032427272237544816
0.14995999999999998,1.0092510644573448e-06,0.00022965131916813055
0.15764,2.3268999494637283e-06,0.00015035091920654437
0.16573,4.5599816429697744e-06,0.00011001878012888158
0.17421999999999999,1.011604341493728e-06,0.00022603529018716317
0.18316,4.3083085751415474e-08,0.0013815927893191375
0.19255,1.867097721782248e-08,0.002542022287198534
0.20242,6.610210871586214e-08,0.0012777134108173348
0.2128,1.1792997175799713e-07,0.000825171163494122
0.22371,1.8680533086407146e-07,0.0007061579626564704
0.23518,2.213140675313436e-07,0.0006201874570055455
0.24724,2.845741359580254e-07,0.0005487071469140569
0.27324,1.1443880754610545e-06,0.00024092631045776136
0.28725,7.545728885655923e-07,0.0002973093611814437
0.29452,9.667230848679658e-07,0.00024864503432740954
0.29721,1.2298179647468966e-07,0.0007668688651411805
0.29849,8.304814959016364e-08,0.0008170370543592567
0.30196999999999996,2.186050228138759e-07,0.0004808265155142831
0.33372999999999997,2.594631582894337e-06,0.00014869719339215373
0.36883,7.555314853615759e-07,0.00029471240633583513
0.38774,3.903758594793433e-07,0.00042611606330493257
0.40762,3.958385838002942e-07,0.00047650743390778593
0.45049,8.001945971120238e-07,0.00031725138511634734
0.49787,7.95854978593503e-07,0.0003010023925259075
0.5234,3.871314567919463e-07,0.0004026487928244195
0.55023,3.7437727383561807e-07,0.0004217313588285395
0.57844,3.584851188186478e-07,0.00045344765145973316
0.6081,3.389896527029344e-07,0.0004315547878882313
0.63928,3.160098930012449e-07,0.0005059577269652056
0.67206,2.90675020490212e-07,0.0005295500669297193
0.70651,2.62536584257001e-07,0.0004942501066110898
0.74274,2.3271283435335518e-07,0.0005918657111908574
0.78082,2.017181014639995e-07,0.000551704361585285
0.82085,1.70391472830761e-07,0.0006102601680452839
0.8629399999999999,1.4000673212411486e-07,0.0007290390745779981
0.90718,1.1126683201109871e-07,0.0007387003213337022
0.9616699999999999,9.673066720703115e-08,0.000889958675615589
1.0026,5.522442864661805e-08,0.001194711047573063
1.1079999999999999,1.1512856131592769e-07,0.0007881013296857136
1.1648,5.0881836401242e-08,0.0011961416212302098
1.2246,4.6969244855991605e-08,0.001110535589972957
1.2873999999999999,4.3539445682818964e-08,0.0014012179817078775
1.3534,4.052397085320983e-08,0.0014742427922434212
1.4226999999999999,3.746732752936009e-08,0.0013842904636767815
1.4957,3.490883869669045e-08,0.0014422341573343852
1.5724,3.249590292052619e-08,0.0014466387018623001
1.653,3.016917728421636e-08,0.0017249284520986792
1.7377,2.8091861111465866e-08,0.0016103247010057387
1.8268,2.6156615780071873e-08,0.0017901317981512095
1.9204999999999999,2.441547022767017e-08,0.001732406729453296
2.019,2.2692922803104106e-08,0.0014829343598252056
2.1225,2.11558203985801e-08,0.0019799538492592684
2.2313,1.98596002963104e-08,0.0020284922362110006
2.3068999999999997,1.2443974116368598e-08,0.0023143674523985647
2.3457,5.986302392085552e-09,0.0031628082495557693
2.3653,2.9492312780793806e-09,0.0044523066607445915
2.3851,2.9032333315426826e-09,0.004812680468542443
2.4659999999999997,1.1332103962683386e-08,0.0026691755666710944
2.5924,1.6097148926430553e-08,0.001995249004464364
2.7253,1.523172015291427e-08,0.0021925923191426617
2.8649999999999998,1.4280016142555623e-08,0.002132394602562389
3.0119,1.3261524190133327e-08,0.0022025429539906643
3.1664,1.2333053190192835e-08,0.002096454206652536
3.3287,1.14291315949892e-08,0.0021851024298274175
3.6788,2.105667559230058e-08,0.001776986926622387
4.0657,1.9904923921996373e-08,0.0018051163629633177
4.4933,1.943532348063854e-08,0.0018474374113058886
4.7237,9.620917373061013e-09,0.0024715609567752214
4.9658,9.58587676419242e-09,0.002448388327499373
5.2204999999999995,9.49108678699368e-09,0.0022527332964360045
5.488099999999999,9.404359861973705e-09,0.002525134505545999
5.7695,9.333282676029498e-09,0.0020538318400226564
6.0653,9.248620052388338e-09,0.002454615593654179
6.3763,9.06894217134207e-09,0.0024634983548791783
6.5924,5.850696429367563e-09,0.0028467045654520023
6.7032,2.90078913891515e-09,0.0036984446566402105
7.0469,8.594273195243207e-09,0.0022099985290541663
7.4082,8.341624591989221e-09,0.0023753242696392092
7.787999999999999,8.140138684307778e-09,0.002145676405046723
8.1873,8.019223007647929e-09,0.0023982172141163932
8.607099999999999,8.076310405216176e-09,0.002549952364817797
9.048399999999999,8.551161577854494e-09,0.002445691661280081
9.5123,9.33415467658226e-09,0.0021476390758153117
10.0,1.1044054155369571e-08,0.0016902730744103615
10.513,1.6891766552784962e-08,0.001692947403603086
11.052,1.7581216149960265e-08,0.0015603738550636554
11.618,1.8297225264366686e-08,0.001426240234657484
12.213999999999999,1.8825815875419046e-08,0.0012608394047709344
12.523,9.692331141158418e-09,0.0018339567519950971
12.84,9.685195272796225e-09,0.0019357119748072743
13.498999999999999,1.861410535432759e-08,0.001365586973234979
13.84,8.953856706887355e-09,0.0020976102035073097
14.190999999999999,2.7312890652005837e-09,0.003469646074533673
14.549999999999999,0.0,
14.918,0.0,
15.683,0.0,
16.487,0.0,
16.904999999999998,0.0,
17.332,0.0,
19.64,0.0,
