Energy,Value,Error
1e-07,0.0,
4.1399e-07,3.6387625146539273e-13,0.358681177361586
5.3158e-07,5.408687618638682e-13,0.3745574172609518
6.825599999999999e-07,6.076202702399933e-13,0.2676554168583793
8.7643e-07,1.4432794597697918e-12,0.22606947234921054
1.1252999999999998e-06,4.151771186907911e-12,0.13038476157430265
1.445e-06,7.420861580907146e-12,0.07662836608838747
1.8553999999999998e-06,1.2378847707850953e-11,0.06945088742730314
2.3824e-06,1.9477582602202417e-11,0.04777509778279818
3.059e-06,3.035957893881688e-11,0.047487884770675906
3.9279e-06,5.051846886348308e-11,0.0321779989344393
5.043499999999999e-06,7.244231451383476e-11,0.03272591350114844
6.4759e-06,1.2502702096223893e-10,0.02149310325891336
8.3153e-06,1.8323680454960645e-10,0.018177778308280487
1.0677e-05,2.8818757281796053e-10,0.013281289729174587
1.3710000000000001e-05,4.434710507458773e-10,0.012873954801178327
1.7604e-05,6.545958460782546e-10,0.01052070908478434
2.2603e-05,9.819285713922936e-10,0.009066020335332724
2.9023e-05,1.4972224120244231e-09,0.0075783127994241434
3.7266e-05,2.2058307698473433e-09,0.005185540749178652
4.7851e-05,3.3267226678303317e-09,0.004046475883327817
6.1442e-05,4.9183884934677245e-09,0.003536024784233488
7.889299999999999e-05,7.276004998999996e-09,0.0025780197220123323
0.0001013,1.0738869423681371e-08,0.002454540547519592
0.00013006999999999998,1.5680153498193424e-08,0.0020702504165132003
0.00016702,2.2886665633732016e-08,0.0018620474484991572
0.00021444999999999998,3.296351864561148e-08,0.0011055360552777445
0.00027536,4.683814139357451e-08,0.0009950896271326926
0.00035358,6.530067564629048e-08,0.0010513019363763414
0.000454,8.860458719173099e-08,0.0007252994537261418
0.00058295,1.179329577728646e-07,0.0006639211300235096
0.0007485199999999999,1.5375904105987947e-07,0.0005313310751894097
0.00096112,1.9620327182612985e-07,0.0004328761814714208
0.0012341,2.4377111408436065e-07,0.0005353720474361828
0.0015845999999999998,2.8706653606290556e-07,0.0004065349289760809
0.0020347,3.246666015289856e-07,0.0003742221193925821
0.0022486999999999997,1.8226239643245662e-07,0.00046465100257294257
0.0024852,9.236327836494732e-07,0.00023510937536812946
0.0026125999999999996,2.5553265592797655e-06,0.00013115482553215622
0.0027465,5.951495413476894e-06,9.671226227809069e-05
0.0030354,1.527443694195013e-05,5.263657855833694e-05
0.0033545999999999997,4.057804080642709e-06,0.00012045183746413594
0.0037074,2.4943165830992645e-07,0.000582015468427348
0.004307399999999999,1.4196938870082106e-08,0.002846740605167112
0.0055308,2.4090195745999606e-07,0.0006825856686793284
0.0071017,2.4602673073377902e-08,0.0021494856434795596
0.009118799999999998,4.731369028058228e-07,0.0004042357683967063
0.010595,8.920678214535532e-07,0.00028694167503872075
0.011708999999999999,8.292090742984956e-07,0.0002691911461245564
0.015033999999999999,1.7685556717960735e-06,0.00020205133892712857
0.019303999999999998,1.5147366869695005e-07,0.0004868567025450403
0.021875,2.2706382840682858e-08,0.0015730886130297334
0.023579,2.3385208874741603e-08,0.0018830576790866387
0.024176,9.326886667980947e-09,0.003121999609812627
0.024787999999999998,8.373428250741457e-09,0.0031203348990635487
0.026057999999999998,1.1522875799666645e-08,0.002446350416594724
0.027,4.511789611998159e-09,0.004925110755676491
0.028501,3.3962747376422548e-09,0.005761092341327689
0.031827999999999995,5.182648010252008e-09,0.005258202568385665
0.034307,4.935384812855455e-09,0.005006768203921951
0.040868,2.6875335770077855e-08,0.0016210213215917518
0.046308999999999996,7.829216797651232e-08,0.0007539536402045162
0.052475,9.44273549247282e-08,0.0009247362441493014
0.056561999999999994,2.8145124132100497e-08,0.0018847861385022492
0.06738,2.1687122185277376e-08,0.0020905773841550577
0.07202399999999999,1.411285161754964e-08,0.0026168005991298294
0.079499,3.675432246585273e-08,0.0013538640406483874
0.08250299999999999,9.43426449366374e-09,0.003600086469905383
0.086517,2.148041129646476e-08,0.0021081178253231705
0.098036,6.179805951307442e-08,0.0011735084352473956
0.11109,1.116827874308569e-07,0.0007914235776280296
0.11678999999999999,1.1873822185843287e-08,0.0029242542550996734
0.12276999999999999,2.8568819178736238e-08,0.0017858450638539687
0.12907,1.551051380388519e-08,0.0022072274532969546
0.13569,1.415675206089742e-08,0.0021398199781468914
0.14264,1.5151657046255406e-08,0.003021602815319552
0.14995999999999998,2.1524607735794502e-08,0.001965351354210865
0.15764,2.37996761864076e-08,0.0019700224142589237
0.16573,4.6114609465457896e-08,0.0015829989444693855
0.17421999999999999,2.4828955063817086e-08,0.001936282713825231
0.18316,1.486734276678902e-07,0.0005778723512652768
0.19255,3.0127404516428754e-08,0.001441688727932611
0.20242,2.3631780602730297e-08,0.002072367530100587
0.2128,4.739539133630293e-08,0.0012494887266230842
0.22371,3.9349668130446685e-08,0.0015468279915896168
0.23518,2.8166310888184354e-08,0.0020437761468797546
0.24724,2.6534159032574732e-08,0.0018810789900765232
0.27324,9.153342043600356e-08,0.0009325189446935965
0.28725,3.8849901752453075e-08,0.0014426169815540313
0.29452,5.0922122704652635e-08,0.0011334599665836533
0.29721,5.291980438358024e-09,0.003981590609579309
0.29849,2.3220547715606245e-09,0.005815281166462786
0.30196999999999996,5.09397561993542e-09,0.004401908589570919
0.33372999999999997,7.731259456942243e-08,0.0009561038819816695
0.36883,8.230941556254135e-08,0.0008724910225129511
0.38774,2.596948427864002e-08,0.0016150986050728843
0.40762,1.3774267168218032e-08,0.0025966092411801793
0.45049,2.5019938460232363e-08,0.0018353805722333316
0.49787,3.2334264033239765e-08,0.0014496305948181304
0.5234,1.2251217763760463e-08,0.0028685898040531855
0.55023,1.329847297585493e-08,0.002376724726729584
0.57844,2.0296938781948097e-08,0.0019725191325600847
0.6081,9.928730096905563e-09,0.0027648117715264016
0.63928,1.582582791631797e-08,0.0023407674884462614
0.67206,1.0321654009996496e-08,0.0032241563088000846
0.70651,1.2171357355971578e-08,0.002506807352835551
0.74274,9.836007031508112e-09,0.0031241079138990893
0.78082,8.642641872941683e-09,0.003166675401364438
0.82085,9.283084491820514e-09,0.0030133684332998437
0.8629399999999999,7.276432975890303e-09,0.0029513690724181246
0.90718,8.92619747080295e-09,0.003592753711898894
0.9616699999999999,9.86426899684895e-09,0.002560502025403796
1.0026,6.560462022047194e-09,0.0033696289738876823
1.1079999999999999,1.4286853998059087e-08,0.002469985496619945
1.1648,6.434719020093191e-09,0.0033370048338477163
1.2246,5.916916064169479e-09,0.003535761583347755
1.2873999999999999,5.4765188011372746e-09,0.00393047111628187
1.3534,5.112434398878708e-09,0.00412277017432149
1.4226999999999999,4.747921049879015e-09,0.00421715039251879
1.4957,4.484294749545558e-09,0.00448528936181089
1.5724,4.202085652806576e-09,0.004495547564130491
1.653,3.994671100904677e-09,0.004620733062961817
1.7377,3.7387933663087756e-09,0.0039313398890771945
1.8268,3.531045116492948e-09,0.005424983464716554
1.9204999999999999,3.3363561352996153e-09,0.004432984792882583
2.019,3.1750171298053883e-09,0.004943725952154649
2.1225,2.9780308721830895e-09,0.0044915114581178936
2.2313,2.80971190296107e-09,0.005859796784763604
2.3068999999999997,1.7669890137413049e-09,0.007122485338496696
2.3457,8.575132924269715e-10,0.009033165629865685
2.3653,4.198272064736355e-10,0.012437851685441578
2.3851,4.245294638841398e-10,0.013682153876621436
2.4659999999999997,1.6711507209952055e-09,0.006489096081631332
2.5924,2.349619821065056e-09,0.00677409865764488
2.7253,2.221120890346127e-09,0.0056453647959664845
2.8649999999999998,2.113927146041487e-09,0.006129319703101122
3.0119,1.9706049702465935e-09,0.006535808552941895
3.1664,1.8634027499817285e-09,0.007273945605159605
3.3287,1.7459404257871128e-09,0.00710099728481278
3.6788,3.2540164833906186e-09,0.004278789237721231
4.0657,2.9318010251715656e-09,0.0051757124019364414
4.4933,2.667571402498575e-09,0.005758354120977991
4.7237,1.2687385833090552e-09,0.0077827201204539774
4.9658,1.2462838359002767e-09,0.007188017742791825
5.2204999999999995,1.2144115932878835e-09,0.007516818334556361
5.488099999999999,1.175534375865161e-09,0.007870632878644467
5.7695,1.154444225793771e-09,0.0068601817722049535
6.0653,1.1486483184041086e-09,0.006909521410944361
6.3763,1.1380339072274096e-09,0.007009051404221145
6.5924,7.596370697097052e-10,0.009776031424812683
6.7032,3.8288425053082267e-10,0.011864177426126818
7.0469,1.139897306923323e-09,0.007229320304522272
7.4082,1.1670419193687216e-09,0.006606827184292945
7.787999999999999,1.1997596509553701e-09,0.0064176616361157875
8.1873,1.2123342404174954e-09,0.006502643277479984
8.607099999999999,1.2557107819999893e-09,0.005993806345881185
9.048399999999999,1.3289607764558622e-09,0.005693792122549628
9.5123,1.440319019259682e-09,0.006171264185601866
10.0,1.9689026931616955e-09,0.0043850080829699704
10.513,2.9253658555535687e-09,0.004373889161714761
11.052,3.159833761843146e-09,0.0037740029856916098
11.618,3.4552869739200386e-09,0.003325076205750982
12.213999999999999,3.787570948340907e-09,0.0032865104968194322
12.523,2.0221309132502967e-09,0.004755145407178023
12.84,2.1183676741621224e-09,0.003881895196820068
13.498999999999999,4.234872667977908e-09,0.003352372844508193
13.84,1.7989521921186746e-09,0.00404311076088461
14.190999999999999,3.5555239095410127e-10,0.009499618853945787
14.549999999999999,0.0,
14.918,0.0,
15.683,0.0,
16.487,0.0,
16.904999999999998,0.0,
17.332,0.0,
19.64,0.0,
