Energy,Value,Error
1e-07,2.019703442728181e-13,0.5108131036720385
4.1399e-07,1.5935625521175543e-11,0.0826152359646685
5.3158e-07,1.6997013395420235e-11,0.07084309287811433
6.825599999999999e-07,3.1032787126902904e-11,0.0503414792207967
8.7643e-07,4.5322467462050716e-11,0.03430166050834793
1.1252999999999998e-06,6.872675280302754e-11,0.04097898569076212
1.445e-06,1.1070539975177091e-10,0.0296392412465385
1.8553999999999998e-06,1.58902279327979e-10,0.022406114997074775
2.3824e-06,2.2821189971206687e-10,0.018964655008129636
3.059e-06,3.0721431417948404e-10,0.018126522106102366
3.9279e-06,4.3781387766246816e-10,0.01250866663304504
5.043499999999999e-06,5.85861417852716e-10,0.011463338081002177
6.4759e-06,7.718057110041236e-10,0.009906741072037518
8.3153e-06,1.013119989031478e-09,0.008966054193051213
1.0677e-05,1.330479417394148e-09,0.008808554641825667
1.3710000000000001e-05,1.6841083863089019e-09,0.007456423135002252
1.7604e-05,2.093711886842563e-09,0.005978560638644388
2.2603e-05,2.6279007023621915e-09,0.0057205882580710484
2.9023e-05,3.2893438085062114e-09,0.004646370082616255
3.7266e-05,4.073739384431183e-09,0.004585699674490061
4.7851e-05,5.007412875089939e-09,0.003948117292904604
6.1442e-05,6.181065402202085e-09,0.003457236739659248
7.889299999999999e-05,7.602307425354308e-09,0.003209406597799174
0.0001013,9.272822868115259e-09,0.0030656216004590056
0.00013006999999999998,1.1467679328971643e-08,0.002250159821879159
0.00016702,1.4124311523370036e-08,0.0024546663945987325
0.00021444999999999998,1.7497852475772376e-08,0.0022570707868699498
0.00027536,2.1647319062409762e-08,0.002068037527845518
0.00035358,2.6950566736150754e-08,0.0017473363651711264
0.000454,3.373795966795328e-08,0.0013299976241742011
0.00058295,4.226766308083209e-08,0.0013243257441867364
0.0007485199999999999,5.2970890135093506e-08,0.0011400823436197845
0.00096112,6.62080016097993e-08,0.0011259801811599936
0.0012341,8.313801874370292e-08,0.0009887756489053365
0.0015845999999999998,1.0435426619499389e-07,0.0008817647413126621
0.0020347,1.3244404877546568e-07,0.0007260321560496543
0.0022486999999999997,6.377932724517697e-08,0.0011705251224084982
0.0024852,7.317884975325538e-08,0.0010442770798524163
0.0026125999999999996,4.327434434627488e-08,0.001173961645331415
0.0027465,3.398618322045343e-08,0.0013397097561869042
0.0030354,9.409769326007125e-08,0.0009177908037559676
0.0033545999999999997,1.0835209748756875e-07,0.0008920075724302942
0.0037074,1.2077596133041576e-07,0.0007021106549257134
0.004307399999999999,2.187094238868639e-07,0.0005257646905490125
0.0055308,4.842667409460454e-07,0.0004076826265183994
0.0071017,7.706818293162727e-07,0.00031297547724397834
0.009118799999999998,6.408456950647431e-07,0.0003503488868096832
0.010595,5.869594740935292e-07,0.00041860392613146354
0.011708999999999999,4.892019003806234e-07,0.0003690446428661326
0.015033999999999999,1.2257651745615274e-06,0.0002492594013943641
0.019303999999999998,1.479038123457449e-06,0.0002504529696663066
0.021875,1.0137749789253803e-06,0.0002779379056803816
0.023579,6.452370832879482e-07,0.0003032915712765408
0.024176,2.2005948678046043e-07,0.0005762026089804199
0.024787999999999998,1.5479940780256965e-07,0.0008018270408044248
0.026057999999999998,6.455317354336358e-07,0.0003387931902233491
0.027,3.0880873118173004e-07,0.000457363259083143
0.028501,5.983404547596774e-07,0.0003496605010617583
0.031827999999999995,8.42044467117737e-07,0.0003205212174665666
0.034307,7.542285852627783e-07,0.00034875718638071115
0.040868,2.0578849220046934e-06,0.000170000977671436
0.046308999999999996,1.54461250762028e-06,0.00019490210354917658
0.052475,7.030354624198723e-07,0.00032598337742870457
0.056561999999999994,3.600090065079659e-07,0.0006037393757672761
0.06738,7.688673907894081e-07,0.00033100568257034654
0.07202399999999999,3.1878981345245834e-07,0.0005047588952019732
0.079499,5.185235378010213e-07,0.00041017021171856993
0.08250299999999999,2.1237842551234824e-07,0.000582000341794886
0.086517,2.897589947180536e-07,0.000517012595298164
0.098036,8.810011850294774e-07,0.00029555779413019607
0.11109,1.0906015653363575e-06,0.00027024811045518927
0.11678999999999999,3.865076521310631e-07,0.0005258309382623248
0.12276999999999999,3.3162283386489127e-07,0.0005179108741839489
0.12907,3.552774106386813e-07,0.0004576033534540047
0.13569,4.0368871246970483e-07,0.00047218635896261515
0.14264,3.850877829102915e-07,0.0004627282116016841
0.14995999999999998,4.224352671875467e-07,0.0004185387237319267
0.15764,5.40503833887524e-07,0.0003738332723664518
0.16573,5.975270068707461e-07,0.00035217087386374044
0.17421999999999999,5.135587467311184e-07,0.0004391158186698465
0.18316,4.898623889253237e-07,0.00039466486401378643
0.19255,5.106554931808653e-07,0.0003951777058099936
0.20242,6.075668625985315e-07,0.0003880610140592594
0.2128,6.866600276194884e-07,0.0003214933502544523
0.22371,5.620412918418548e-07,0.0003971028765983428
0.23518,5.119075319296118e-07,0.0004065338857215985
0.24724,5.756784584600944e-07,0.000354337077347555
0.27324,1.0178459639954784e-06,0.00027577351547550055
0.28725,5.717990822201183e-07,0.0003572070169023392
0.29452,2.592064044338176e-07,0.0006205073904083973
0.29721,8.918482088242663e-08,0.0009881342772149312
0.29849,4.325650706142983e-08,0.0013964150315597644
0.30196999999999996,1.1955467762891485e-07,0.0008560678727106462
0.33372999999999997,1.3717537586833694e-06,0.000223855553439336
0.36883,1.2576438202617607e-06,0.00026353399417785916
0.38774,5.518682668014914e-07,0.00038170656123075327
0.40762,6.336775929813152e-07,0.0003148094652935778
0.45049,1.0727382643715222e-06,0.00023055926018208516
0.49787,1.1645581030504669e-06,0.0002815862058543769
0.5234,5.401567810427318e-07,0.00040928995451566705
0.55023,5.151900657103932e-07,0.0004166452375878144
0.57844,6.100715512013502e-07,0.0003564677713174172
0.6081,7.032617651735354e-07,0.0003431362158471508
0.63928,5.593837784680566e-07,0.00032692457125462317
0.67206,5.408425930857232e-07,0.00034336287371419756
0.70651,5.098018731585378e-07,0.00035080911809962274
0.74274,4.913469436609833e-07,0.00039243387015135833
0.78082,4.710543790043535e-07,0.0003862929599297329
0.82085,4.4845598159990506e-07,0.0003847018530282875
0.8629399999999999,4.259566291212618e-07,0.00047126739350359265
0.90718,3.993838466179469e-07,0.00046041882115289555
0.9616699999999999,4.3657140764117373e-07,0.0003954139978943999
1.0026,3.0002984479670155e-07,0.00047433049096192836
1.1079999999999999,7.010360381425475e-07,0.0003439103232525065
1.1648,3.3711659149959804e-07,0.00048010446567310795
1.2246,3.22729355259726e-07,0.0004964844232241936
1.2873999999999999,2.99648373472407e-07,0.0005074459144098856
1.3534,2.730282797539121e-07,0.0005282572397914675
1.4226999999999999,2.4358422113668706e-07,0.0005355530181893786
1.4957,2.1054994156869854e-07,0.0006265535596122729
1.5724,1.7367393359847237e-07,0.0005746853419463794
1.653,1.4081229483253835e-07,0.0007444891509315395
1.7377,1.1895307015618059e-07,0.0008122605738204613
1.8268,1.0080176622033516e-07,0.0009290533579699405
1.9204999999999999,8.408219827120177e-08,0.0009724851521877283
2.019,7.297733272117799e-08,0.0010728135345464236
2.1225,6.684549997562353e-08,0.0009593846412870291
2.2313,6.259282083433515e-08,0.0009308701481223177
2.3068999999999997,3.9649858071522114e-08,0.0012224472400203601
2.3457,1.9062642034206845e-08,0.001969270924576241
2.3653,9.344341501945933e-09,0.0028160365710261878
2.3851,9.275802477474467e-09,0.0026920413738232563
2.4659999999999997,3.622723755369825e-08,0.001420728012920065
2.5924,5.263666506352436e-08,0.0011453671996516613
2.7253,5.0346619001365995e-08,0.0010226481840320501
2.8649999999999998,4.7158037471638466e-08,0.001351318783686336
3.0119,4.2739712854055345e-08,0.0010995815542124785
3.1664,3.892093436076975e-08,0.0013286463393991164
3.3287,3.55490512531741e-08,0.0013807498909023162
3.6788,6.360241340038576e-08,0.0009389597407693542
4.0657,5.7417368016911604e-08,0.0009558532387477581
4.4933,5.5591610260609744e-08,0.000985078031671442
4.7237,2.7124374208790576e-08,0.001519120725382756
4.9658,2.6667198416476217e-08,0.0012984941332448172
5.2204999999999995,2.6413176704686903e-08,0.001438842028282488
5.488099999999999,2.6344129381520463e-08,0.0014350644234775085
5.7695,2.63781287682186e-08,0.001303438170312985
6.0653,2.642865071397991e-08,0.0013494190070937743
6.3763,2.6397266903834567e-08,0.0015298462914110568
6.5924,1.7633495214934473e-08,0.001567867905275775
6.7032,8.884526541098604e-09,0.0025159594872389904
7.0469,2.6929125411548357e-08,0.0013815165295276047
7.4082,2.7460201103054194e-08,0.001395752184902204
7.787999999999999,2.8700484360486073e-08,0.0012541054831034213
8.1873,3.027125337774247e-08,0.0013406995571970722
8.607099999999999,3.172601067567101e-08,0.0012178295683586162
9.048399999999999,3.3264056772672193e-08,0.0012047743859325676
9.5123,3.537943920221545e-08,0.0010295974293395365
10.0,4.4813145670409785e-08,0.0010223182072256938
10.513,8.504349264217124e-08,0.0007523994852363551
11.052,9.067328336936248e-08,0.0006377782178077005
11.618,9.734286876422473e-08,0.0006346676414915307
12.213999999999999,1.0522971163291343e-07,0.0006282354810041269
12.523,5.554581017317687e-08,0.0009212600002494087
12.84,5.783493459751584e-08,0.0008182057536257938
13.498999999999999,1.222457389400098e-07,0.0005508361368111855
13.84,6.068463266364909e-08,0.0008348882108371437
14.190999999999999,1.981320219944515e-08,0.0013871494325578342
14.549999999999999,0.0,
14.918,0.0,
15.683,0.0,
16.487,0.0,
16.904999999999998,0.0,
17.332,0.0,
19.64,0.0,
