Energy,Value,Error
1e-07,0.0,
4.1399e-07,0.0,
5.3158e-07,0.0,
6.825599999999999e-07,0.0,
8.7643e-07,0.0,
1.1252999999999998e-06,4.3799773107627305e-11,0.046438161382036616
1.445e-06,1.0639883110415559e-10,0.03169795535539954
1.8553999999999998e-06,1.3622351978159316e-10,0.0325525445554043
2.3824e-06,1.6266374609101162e-10,0.022636467568966364
3.059e-06,2.1774014190144151e-10,0.025652044018896456
3.9279e-06,2.6585146308803367e-10,0.021686596349130602
5.043499999999999e-06,3.51801735955728e-10,0.01821449045096161
6.4759e-06,4.667378626255649e-10,0.016520685099422436
8.3153e-06,5.839590239271542e-10,0.013298208097415831
1.0677e-05,7.68801286718469e-10,0.011542831815800451
1.3710000000000001e-05,9.831883779613613e-10,0.011204395191237188
1.7604e-05,1.236429814698798e-09,0.009231186962230102
2.2603e-05,1.562447619063245e-09,0.007404068418802762
2.9023e-05,2.0334400378293624e-09,0.009088616654524713
3.7266e-05,2.614511145099777e-09,0.007043173685455695
4.7851e-05,3.347016251603771e-09,0.006016730463581783
6.1442e-05,4.3301231088899666e-09,0.0061875331296505805
7.889299999999999e-05,5.572898468542832e-09,0.00459682704312173
0.0001013,7.0842429621952425e-09,0.004422567245043083
0.00013006999999999998,9.199962542818608e-09,0.004301439651402817
0.00016702,1.1788058343964421e-08,0.0032017544890725522
0.00021444999999999998,1.5095647936881585e-08,0.0032760065208247563
0.00027536,1.944876823899858e-08,0.0024768842890346373
0.00035358,2.4927094123988553e-08,0.0020409460075929546
0.000454,3.205089157824511e-08,0.0019633995617609644
0.00058295,4.1083195655321496e-08,0.0016743198286335696
0.0007485199999999999,5.274803808417966e-08,0.001517966568023888
0.00096112,6.777946637614799e-08,0.0013027515517649913
0.0012341,8.704571486694454e-08,0.0012450276023059494
0.0015845999999999998,1.1151664785067105e-07,0.001054365237956536
0.0020347,1.435397759982915e-07,0.0010172185225927309
0.0022486999999999997,1.7041684665190555e-07,0.0013097794659386484
0.0024852,1.8854594785047706e-07,0.0012829335494692218
0.0026125999999999996,2.0255726475980137e-07,0.00176110340317557
0.0027465,2.1326220671976072e-07,0.001647505032123793
0.0030354,2.2987115356754482e-07,0.001300283572043633
0.0033545999999999997,2.540243946320415e-07,0.0011833396893517509
0.0037074,2.8109785944664885e-07,0.0010522479586405548
0.004307399999999999,3.1888465459735236e-07,0.0008094922150193154
0.0055308,3.898186399380305e-07,0.0006699653751895052
0.0071017,5.005310619680578e-07,0.00046511856979308065
0.009118799999999998,6.426323991136684e-07,0.0004896825097496044
0.010595,7.8405062424838e-07,0.0005169394638977084
0.011708999999999999,8.875213721076471e-07,0.00055889822525711
0.015033999999999999,1.059990058454375e-06,0.0003415295345360858
0.019303999999999998,1.3603880700520348e-06,0.0003046916643118905
0.021875,1.637115536747816e-06,0.000372473224528648
0.023579,1.809861611836616e-06,0.0004447316152703979
0.024176,1.9034885424943117e-06,0.000850098500659233
0.024787999999999998,1.9483078662519436e-06,0.0007923880559047821
0.026057999999999998,2.0251656222259017e-06,0.0005933412853953548
0.027,2.1110518832568298e-06,0.0006957344425174976
0.028501,2.210453834287601e-06,0.0005172057119850266
0.031827999999999995,2.4005071602239905e-06,0.0003485889890579551
0.034307,2.6318111290350756e-06,0.00040798423028782707
0.040868,2.986289400681602e-06,0.00022535896786488418
0.046308999999999996,3.4671515204263773e-06,0.0002533060174432193
0.052475,3.9286144874678516e-06,0.0002592181880474685
0.056561999999999994,4.339564658637228e-06,0.0003180255013814097
0.06738,4.9213163610021804e-06,0.00018487572059593138
0.07202399999999999,5.549031391062775e-06,0.0002777782851182693
0.079499,6.028243671469258e-06,0.0002276653827098899
0.08250299999999999,6.448928455343056e-06,0.00031741867409431837
0.086517,6.730843037762864e-06,0.0003278755126747445
0.098036,7.327451938368896e-06,0.00019390060647002792
0.11109,2.0327032173513147e-06,0.0003635491791211953
0.11678999999999999,1.007327036724426e-06,0.0008340555515615439
0.12276999999999999,1.0592198686477376e-06,0.0007473518528629734
0.12907,1.1141854944598967e-06,0.0007713855352365142
0.13569,1.1732859575263078e-06,0.0006718776695387796
0.14264,1.2310608773819655e-06,0.0007437340201138048
0.14995999999999998,1.2950853852044025e-06,0.0007091852026884055
0.15764,1.3600791260483465e-06,0.0006829707000441369
0.16573,1.4313101095160808e-06,0.0006975573052308032
0.17421999999999999,1.5028752127757737e-06,0.0007091361342168876
0.18316,1.5813414390555453e-06,0.0006011387878666184
0.19255,1.6612701875445014e-06,0.0006288118818431621
0.20242,1.746499760923528e-06,0.0004988655765593883
0.2128,1.8352050497488843e-06,0.0006189880356711562
0.22371,1.9309535418435285e-06,0.0005679534840024635
0.23518,2.0310601900158456e-06,0.000518076654330099
0.24724,2.138672551646627e-06,0.0005818940250573952
0.27324,2.307796045882869e-06,0.0003815086537112538
0.28725,2.483409964491407e-06,0.0004660665608873268
0.29452,2.5604959441662374e-06,0.000804815721760284
0.29721,2.6068663350661752e-06,0.0011386021447790985
0.29849,2.6314413221434527e-06,0.0015882280213989017
0.30196999999999996,2.648342564076686e-06,0.0009376496985949915
0.33372999999999997,2.810851939406754e-06,0.00030241942329868024
0.36883,3.1065037557784635e-06,0.0003457196219162061
0.38774,3.347032614083653e-06,0.00044566349327310704
0.40762,3.5175956526097747e-06,0.0004592005686483906
0.45049,3.7952224655229892e-06,0.0003001130711715642
0.49787,4.199302348673531e-06,0.00029341974344684234
0.5234,4.538435795450065e-06,0.0003320249214375104
0.55023,4.777345055532372e-06,0.0003866125380783919
0.57844,5.023876723130429e-06,0.00034522646111674854
0.6081,5.253337786251016e-06,0.0003335871905595371
0.63928,5.515401976434188e-06,0.000288998223595764
0.67206,5.7896361587997606e-06,0.0003707075740175741
0.70651,6.088378207681165e-06,0.0003314934637039683
0.74274,6.408143091963299e-06,0.0002952782944914912
0.78082,6.7409078693893325e-06,0.0002874641960202891
0.82085,7.089329853575498e-06,0.0002732189300257494
0.8629399999999999,7.453826201648583e-06,0.00031244409294067875
0.90718,7.826642585298507e-06,0.00028955471114601444
0.9616699999999999,8.256458711255939e-06,0.00022677855544614417
1.0026,8.170546540672606e-06,0.00030921300094465296
1.1079999999999999,9.389010753820948e-07,0.0005423310332313378
1.1648,1.0108386249679588e-06,0.0007504285416039314
1.2246,1.064204224725627e-06,0.000663844808252265
1.2873999999999999,1.1179596095102036e-06,0.0007671717657797112
1.3534,1.1756368263873657e-06,0.0006826220180109768
1.4226999999999999,1.2351155024041977e-06,0.0007243660515464724
1.4957,1.2970886467911022e-06,0.0006408582531405153
1.5724,1.3641974779353013e-06,0.0006439411410226195
1.653,1.4333093790708625e-06,0.0007022911306789434
1.7377,1.5067068803256046e-06,0.000731950057161857
1.8268,1.5843817754303564e-06,0.0006428119917902334
1.9204999999999999,1.6646769325853922e-06,0.0006934070820756203
2.019,1.7501568746730838e-06,0.0006018967630230392
2.1225,1.836713895326666e-06,0.0006022696636315381
2.2313,1.9330464175233114e-06,0.0005663267316048895
2.3068999999999997,2.012539978220508e-06,0.000701580086693918
2.3457,2.0639885267987747e-06,0.0009704646339328626
2.3653,2.084646147204435e-06,0.0013810605602430496
2.3851,2.1077929316362114e-06,0.0014936022707711556
2.4659999999999997,2.1511986069073363e-06,0.0006796163007244165
2.5924,2.2413738090960527e-06,0.0005360585537345372
2.7253,2.3583421044748685e-06,0.0004806313880122148
2.8649999999999998,2.4767192194881894e-06,0.0005427149710808673
3.0119,2.6054332525302773e-06,0.0005099609771317147
3.1664,2.7395411608967436e-06,0.0005095967502940146
3.3287,2.876232401331875e-06,0.00044734384330291025
3.6788,3.1010187429445727e-06,0.0003380625628985422
4.0657,3.426251854832079e-06,0.0002824786994882937
4.4933,3.7857858613325452e-06,0.00027342666442870114
4.7237,4.07711824642849e-06,0.0003513019378277402
4.9658,4.284431942489462e-06,0.00040930193993131176
5.2204999999999995,4.503052979460066e-06,0.0003252282982032776
5.488099999999999,4.7363646751652154e-06,0.00035724638609719596
5.7695,4.9792465052056665e-06,0.00031712883989090754
6.0653,5.228302858803579e-06,0.0003560813930030631
6.3763,5.4966330766067375e-06,0.00031256536176333896
6.5924,5.730985245853255e-06,0.0003526282751504186
6.7032,5.873924246964122e-06,0.0006014544724900866
7.0469,6.073865265639819e-06,0.0002903026268777674
7.4082,6.384159197102551e-06,0.00035938883013620737
7.787999999999999,6.708567896976328e-06,0.00026005525777474055
8.1873,7.059644090628086e-06,0.00031267506181847834
8.607099999999999,7.417103634635634e-06,0.000280498113543891
9.048399999999999,7.798843956184837e-06,0.00027070415926514505
9.5123,8.201532176194e-06,0.00028077742395533884
10.0,8.62093894502948e-06,0.00030704731444435593
10.513,2.0377898046391464e-05,0.00016457113321300721
11.052,2.1425485045778555e-05,0.00016959307042651965
11.618,2.251543786930555e-05,0.0001502412788785819
12.213999999999999,2.3676148320231492e-05,0.00017385502733579101
12.523,2.4574749792038487e-05,0.000214387784708539
12.84,2.520738593018254e-05,0.0002244329780348368
13.498999999999999,2.6162793442296936e-05,0.0001621634749179745
13.84,2.715694832017747e-05,0.00021264638392469516
14.190999999999999,1.2687313130847171e-05,0.0003255525436564407
14.549999999999999,0.0,
14.918,0.0,
15.683,0.0,
16.487,0.0,
16.904999999999998,0.0,
17.332,0.0,
19.64,0.0,
