Energy,Value,Error
1e-07,0.0,
4.1399e-07,0.0,
5.3158e-07,0.0,
6.825599999999999e-07,0.0,
8.7643e-07,0.0,
1.1252999999999998e-06,4.3799773107627305e-11,0.046438161382036616
1.445e-06,1.0661562020023218e-10,0.03143984333800274
1.8553999999999998e-06,1.3583557047468076e-10,0.03265721320567644
2.3824e-06,1.6278553106525736e-10,0.022623681235976106
3.059e-06,2.1759143511260286e-10,0.02560336879674293
3.9279e-06,2.661735399163337e-10,0.02164351586897669
5.043499999999999e-06,3.512481163046201e-10,0.018178060862131393
6.4759e-06,4.662667047263999e-10,0.016294895619858103
8.3153e-06,5.839914650822418e-10,0.013246477277029909
1.0677e-05,7.678498922806076e-10,0.011386583434889087
1.3710000000000001e-05,9.832043848346605e-10,0.011201922027101833
1.7604e-05,1.2357748198575183e-09,0.00925899192610542
2.2603e-05,1.561948007089413e-09,0.007395874120654874
2.9023e-05,2.0329995683733033e-09,0.009149330288596564
3.7266e-05,2.6133929078293848e-09,0.00700620850505848
4.7851e-05,3.3457507984015506e-09,0.0060517972835552655
6.1442e-05,4.329335469869331e-09,0.006171172554440596
7.889299999999999e-05,5.571299633563329e-09,0.004578532955098262
0.0001013,7.08075956665002e-09,0.004462695553978257
0.00013006999999999998,9.191313734414798e-09,0.004309649436359686
0.00016702,1.1785113260127566e-08,0.00321138704493107
0.00021444999999999998,1.5085366192353665e-08,0.0032551255792022233
0.00027536,1.9440291001866186e-08,0.002485185616270263
0.00035358,2.4921176998681364e-08,0.00203978476339318
0.000454,3.203823711749031e-08,0.0019703405159160452
0.00058295,4.106741472297736e-08,0.001684456212037633
0.0007485199999999999,5.271909670656161e-08,0.001527921529471718
0.00096112,6.775594495820407e-08,0.0012945185972523048
0.0012341,8.702340881631977e-08,0.0012379293554903837
0.0015845999999999998,1.114560859950318e-07,0.0010542816855338456
0.0020347,1.4349487243395395e-07,0.001019006118774946
0.0022486999999999997,1.7032583217099897e-07,0.0013020984242723414
0.0024852,1.8844840352481383e-07,0.0012846206217603288
0.0026125999999999996,2.0248066105796756e-07,0.0017427873170712503
0.0027465,2.132026331902156e-07,0.0016417882024711366
0.0030354,2.2976877689104336e-07,0.0013021228848712487
0.0033545999999999997,2.539168493650442e-07,0.001194643969420868
0.0037074,2.8094795720576785e-07,0.0010432368031869333
0.004307399999999999,3.18707665866981e-07,0.000807571906123581
0.0055308,3.896052299389204e-07,0.0006731991316713303
0.0071017,5.000873405750463e-07,0.0004618941393647202
0.009118799999999998,6.467723736657767e-07,0.0004905087383710628
0.010595,7.836362356579972e-07,0.0005139138547458655
0.011708999999999999,8.873165541932049e-07,0.0005662266234368235
0.015033999999999999,1.0596090286416907e-06,0.0003396264846787257
0.019303999999999998,1.3597524137420953e-06,0.0003029314908023032
0.021875,1.6363405644559975e-06,0.0003731557368543546
0.023579,1.8285162509425872e-06,0.00044581623300494295
0.024176,1.9699455597196173e-06,0.0008304221634547148
0.024787999999999998,2.019108657998805e-06,0.0007828301442315426
0.026057999999999998,1.987466714328267e-06,0.0005921365761762824
0.027,2.0909484812981147e-06,0.0006998128384781867
0.028501,2.2054044194642204e-06,0.0005232076064290042
0.031827999999999995,2.4003873568992155e-06,0.00034487223525543934
0.034307,2.630051451658496e-06,0.00041082532512127373
0.040868,2.984986438336286e-06,0.00022365991961220254
0.046308999999999996,3.5001018713208593e-06,0.00025320809226926617
0.052475,3.910069023409175e-06,0.00025945740417986844
0.056561999999999994,4.334787276740821e-06,0.0003142304095366231
0.06738,4.921414000852315e-06,0.0001845555437923402
0.07202399999999999,5.54795857663114e-06,0.00028500132111174164
0.079499,6.026357616011306e-06,0.0002287891955909065
0.08250299999999999,6.445239524265032e-06,0.0003202980637652576
0.086517,6.7460007193649484e-06,0.00032373854296438196
0.098036,7.338062268671747e-06,0.0001944473296394424
0.11109,2.0319624898323593e-06,0.00036036693561592966
0.11678999999999999,1.0076311374618721e-06,0.000834416698557594
0.12276999999999999,1.0613330670471589e-06,0.0007601288187277151
0.12907,1.1176748665586235e-06,0.0007836522116719321
0.13569,1.184756826093611e-06,0.0006706497197622796
0.14264,1.2290314843558683e-06,0.0007538582667558515
0.14995999999999998,1.2903071207701452e-06,0.0006954448833719361
0.15764,1.3610382091382813e-06,0.0006744286828302144
0.16573,1.43442397063186e-06,0.0006985585357655213
0.17421999999999999,1.507033448120484e-06,0.0007020235527888093
0.18316,1.5832627062399475e-06,0.0006045486853961968
0.19255,1.6623909647018665e-06,0.0006229351039118082
0.20242,1.7482545619336625e-06,0.000501852135626392
0.2128,1.8374665437812272e-06,0.0006129276027265474
0.22371,1.9321482922981352e-06,0.0005672636176675684
0.23518,2.0331387756321794e-06,0.0005168069432379033
0.24724,2.1403984406994435e-06,0.0005902559701433627
0.27324,2.3016327652944675e-06,0.0003752181557237684
0.28725,2.4848130164729884e-06,0.00045758539530484793
0.29452,2.585019798264264e-06,0.0008033807350498645
0.29721,2.6263893178695637e-06,0.0011251390000845021
0.29849,2.6477553265088667e-06,0.001542763639279701
0.30196999999999996,2.6600228932545024e-06,0.0009243457395097854
0.33372999999999997,2.8144448675105766e-06,0.000302697755391131
0.36883,3.1129204145586166e-06,0.0003422753261916001
0.38774,3.349031071970776e-06,0.0004447308544993161
0.40762,3.531752811503733e-06,0.0004510651024435417
0.45049,3.7946469235092092e-06,0.00029176458144283867
0.49787,4.202465952580157e-06,0.0002935369583861107
0.5234,4.52004002178403e-06,0.0003452394890912704
0.55023,4.753303195236189e-06,0.0003821090768872652
0.57844,4.9998205561747586e-06,0.0003436030301631829
0.6081,5.258452962800937e-06,0.00033640768123509063
0.63928,5.5265838627492556e-06,0.00028349478607748123
0.67206,5.804026315762973e-06,0.0003692025536250081
0.70651,6.104640575327065e-06,0.0003300334477625932
0.74274,6.414209017794494e-06,0.0002936776803329716
0.78082,6.745187112906159e-06,0.00028659487851502455
0.82085,7.0966079494777095e-06,0.0002706805423667718
0.8629399999999999,7.462768703580123e-06,0.0003137853747016387
0.90718,7.836569765757516e-06,0.0002925876295833075
0.9616699999999999,8.276921202099072e-06,0.0002272251859802745
1.0026,8.181176608238779e-06,0.00030906463285006826
1.1079999999999999,9.460635614391679e-07,0.0005297781610350104
1.1648,1.0193615874053108e-06,0.0007726802716611895
1.2246,1.0741504945264621e-06,0.0006734295790770411
1.2873999999999999,1.1271186236653053e-06,0.0007846905947414848
1.3534,1.185364324314565e-06,0.0006829366481778696
1.4226999999999999,1.2453457109310433e-06,0.0007358266058592569
1.4957,1.3078292161018188e-06,0.0006465361022650341
1.5724,1.3754085113282639e-06,0.0006538347082703014
1.653,1.4449900504658866e-06,0.0006956099243759738
1.7377,1.5191106075451852e-06,0.0007084753833060176
1.8268,1.597509040802953e-06,0.0006174898578495786
1.9204999999999999,1.67799602324738e-06,0.0007057324998751742
2.019,1.7633268263247842e-06,0.0005923207120098779
2.1225,1.8504705919385113e-06,0.0005901122056909356
2.2313,1.9470622342436515e-06,0.000561549596058628
2.3068999999999997,2.0264409061784742e-06,0.0006719883231457428
2.3457,2.077852402418288e-06,0.0009449825533741218
2.3653,2.1003369027964167e-06,0.0014157823083863384
2.3851,2.121763633785883e-06,0.0014947126257913994
2.4659999999999997,2.1649903178256e-06,0.0006569386512006505
2.5924,2.255756956665873e-06,0.000549393794671512
2.7253,2.3728014759184615e-06,0.0004905369965391665
2.8649999999999998,2.4909356292479025e-06,0.000543068579002688
3.0119,2.6192411010398573e-06,0.0005204971521258499
3.1664,2.75239079432743e-06,0.0005213491828841585
3.3287,2.888084236667174e-06,0.0004450938599377695
3.6788,3.1112898459367635e-06,0.00033123731082206607
4.0657,3.4341420793088055e-06,0.0002888499573335101
4.4933,3.7907121934032936e-06,0.0002742954810717278
4.7237,4.079758601591315e-06,0.00035399852944853515
4.9658,4.286462772645606e-06,0.00040666043670394236
5.2204999999999995,4.503742216076928e-06,0.00032680802572645525
5.488099999999999,4.736521248779217e-06,0.0003532891408403202
5.7695,4.978304496794868e-06,0.0003139024250579656
6.0653,5.227006500478902e-06,0.00035915266567267855
6.3763,5.494986208989531e-06,0.00031367522334206166
6.5924,5.728741177409078e-06,0.00035794620081688964
6.7032,5.87125335688404e-06,0.0006095248069330052
7.0469,6.071063564857779e-06,0.00028637340533028434
7.4082,6.380497314082949e-06,0.0003607020032994127
7.787999999999999,6.703925051590353e-06,0.0002552464440791091
8.1873,7.054173778561542e-06,0.00031501501393541763
8.607099999999999,7.410030004815248e-06,0.0002768432141652903
9.048399999999999,7.79032809994911e-06,0.00026946595710243857
9.5123,8.191533175822913e-06,0.00028037183657875973
10.0,8.613332651668247e-06,0.00030682772933626447
10.513,2.034869690423806e-05,0.00016483173911608636
11.052,2.1394388910510576e-05,0.00016995865355817156
11.618,2.2482353243476505e-05,0.00014916276452142923
12.213999999999999,2.3642955724219852e-05,0.00017478830688068633
12.523,2.4541308076840176e-05,0.00021635923740616459
12.84,2.517311781091036e-05,0.0002265769213873826
13.498999999999999,2.6127077772913143e-05,0.00016258799787180692
13.84,2.7116026944098332e-05,0.00021405459157458173
14.190999999999999,1.2662988700632719e-05,0.00032563381901069176
14.549999999999999,0.0,
14.918,0.0,
15.683,0.0,
16.487,0.0,
16.904999999999998,0.0,
17.332,0.0,
19.64,0.0,
