Energy,Value,Error
1e-07,0.0,
4.1399e-07,0.0,
5.3158e-07,0.0,
6.825599999999999e-07,0.0,
8.7643e-07,1.0376009574693809e-13,0.5737160585915424
1.1252999999999998e-06,1.1197265508436354e-11,0.0478554056424333
1.445e-06,2.6607992304065137e-11,0.031496176436962654
1.8553999999999998e-06,3.427656952133812e-11,0.03303262861774513
2.3824e-06,4.059089212899128e-11,0.023149659867363594
3.059e-06,5.405122142692596e-11,0.026110479925680222
3.9279e-06,6.700846638876698e-11,0.021876834338103664
5.043499999999999e-06,8.907113486898278e-11,0.018899405309038463
6.4759e-06,1.179707887030186e-10,0.016215122081670582
8.3153e-06,1.4593134048451989e-10,0.014050652719846611
1.0677e-05,1.93139895531381e-10,0.011212037154469803
1.3710000000000001e-05,2.4752327225067276e-10,0.011253885492267315
1.7604e-05,3.1494015237774855e-10,0.011002498901981947
2.2603e-05,3.943882362564822e-10,0.007585799994539478
2.9023e-05,5.124454750808457e-10,0.008987025103058497
3.7266e-05,6.590248443445958e-10,0.007062662986825337
4.7851e-05,8.447360351523226e-10,0.006142081333426966
6.1442e-05,1.0910009279819513e-09,0.006176206070193279
7.889299999999999e-05,1.4041426233757534e-09,0.004854178905962434
0.0001013,1.7821096470577778e-09,0.004435204375831281
0.00013006999999999998,2.3104289669029655e-09,0.004353915609138749
0.00016702,2.958943290563289e-09,0.0031721191788938513
0.00021444999999999998,3.784265126444805e-09,0.0032794092409843423
0.00027536,4.876584696218564e-09,0.002474746300768548
0.00035358,6.247825531065551e-09,0.002050863896692562
0.000454,7.969993674112396e-09,0.0019897582709274358
0.00058295,1.0283278935558876e-08,0.0016841288301804728
0.0007485199999999999,1.3198336464448786e-08,0.0015322824683947286
0.00096112,1.6958638941427643e-08,0.0013101852092397804
0.0012341,2.1776336390797242e-08,0.0012401500545114951
0.0015845999999999998,2.788769127526464e-08,0.0010610179166256246
0.0020347,3.589933714748831e-08,0.001019628454538897
0.0022486999999999997,1.7046005753511054e-08,0.001312177224828995
0.0024852,1.885850455931716e-08,0.0013056620562849283
0.0026125999999999996,1.0130220780711787e-08,0.001748477221632987
0.0027465,1.0660015205329183e-08,0.001672699144209148
0.0030354,2.299467371980489e-08,0.0012995369946501541
0.0033545999999999997,2.5403743322156545e-08,0.0011877490130642087
0.0037074,2.8113381131114355e-08,0.0010521123648267144
0.004307399999999999,4.781835797320693e-08,0.0008103444456760974
0.0055308,9.746048994880622e-08,0.0006669690509887452
0.0071017,1.2513567149210376e-07,0.0004668919017787704
0.009118799999999998,1.6065830577912518e-07,0.00048627419572768723
0.010595,1.1763206434041501e-07,0.0005172151330676644
0.011708999999999999,8.872430165394281e-08,0.000563572311880501
0.015033999999999999,2.653535040084904e-07,0.0003417738467106101
0.019303999999999998,3.4007016682348905e-07,0.0003032299555698153
0.021875,2.0465749061259975e-07,0.0003758543094978201
0.023579,1.3569078074427032e-07,0.0004478104667009359
0.024176,4.7828134859254474e-08,0.0008397057324908198
0.024787999999999998,4.9205598282078914e-08,0.0007878066855661327
0.026057999999999998,1.0263723592696828e-07,0.0006028152115682005
0.027,7.382045088358446e-08,0.0007263372704928325
0.028501,1.1932200545495943e-07,0.0005197373089822585
0.031827999999999995,2.650242584184964e-07,0.00034374951825488184
0.034307,1.9740931764245234e-07,0.0004102644284405718
0.040868,5.227127895856563e-07,0.0002208908785897357
0.046308999999999996,4.333599073308786e-07,0.00025392490134863835
0.052475,4.913858992106692e-07,0.00025871353458245923
0.056561999999999994,3.262270296980273e-07,0.0003135513929331575
0.06738,8.618218539720836e-07,0.000184926269735196
0.07202399999999999,3.6920990309232725e-07,0.00028275269346044455
0.079499,5.952903471693964e-07,0.0002274196225563175
0.08250299999999999,2.392338077371826e-07,0.000325600954762801
0.086517,3.199380950376958e-07,0.00032582843823283615
0.098036,9.165603010475132e-07,0.00019530918266369714
0.11109,2.5423431275819935e-07,0.0003606063620994134
0.11678999999999999,5.023925212512208e-08,0.0008327856346547217
0.12276999999999999,5.293516022948809e-08,0.0007507995754150595
0.12907,5.5894085770021084e-08,0.0007798232608706464
0.13569,5.8688580947471416e-08,0.0006767778444317865
0.14264,6.155656754872899e-08,0.0007471828875963319
0.14995999999999998,6.469014242942726e-08,0.000700120289692184
0.15764,6.795945221061488e-08,0.000690394754585188
0.16573,7.166103753310701e-08,0.00069367354521989
0.17421999999999999,7.535460217934173e-08,0.0007136187396018805
0.18316,7.95154820329861e-08,0.0005990300870896201
0.19255,8.270988504211072e-08,0.0006372063573080686
0.20242,8.74008316484125e-08,0.0005010613318326496
0.2128,9.21248561004008e-08,0.0006198786322431378
0.22371,9.650112282007926e-08,0.0005713141263777116
0.23518,1.0149331303872438e-07,0.0005276356683220709
0.24724,1.0691466989547057e-07,0.0005894872636350245
0.27324,2.3038936575275732e-07,0.0003809190365649214
0.28725,1.2409711298448647e-07,0.0004642080380885021
0.29452,6.446887065561055e-08,0.0008016028789571013
0.29721,2.377096622771179e-08,0.001132135131918647
0.29849,1.1360515195394155e-08,0.0015912925490536986
0.30196999999999996,3.083718900771562e-08,0.0009391238466110249
0.33372999999999997,2.822049325342143e-07,0.00030292976520193053
0.36883,3.105344311216808e-07,0.0003491916703585601
0.38774,1.677673115758907e-07,0.0004475711487457723
0.40762,1.75917793977001e-07,0.000452255773696424
0.45049,3.8008599209519674e-07,0.000298212367051293
0.49787,4.1949826897012635e-07,0.00029558229606262696
0.5234,2.263626897008332e-07,0.00034354503590222326
0.55023,2.3728731154940046e-07,0.0003773728318677161
0.57844,2.4988839115907634e-07,0.000347317513390594
0.6081,2.6303273498600264e-07,0.00034036624813312
0.63928,2.7644303457015895e-07,0.0002798152465766664
0.67206,2.9020181194854365e-07,0.0003659102173181095
0.70651,3.052897852042209e-07,0.0003339607475200082
0.74274,3.2097292271856797e-07,0.00029599164533485663
0.78082,3.3733038940229094e-07,0.00028336797403788217
0.82085,3.546717430750138e-07,0.00027276708835817027
0.8629399999999999,3.7330762977195753e-07,0.0003144698832264997
0.90718,3.918105840770709e-07,0.000290769611324458
0.9616699999999999,4.82195002838517e-07,0.00022844122099199547
1.0026,3.4063440408998067e-07,0.0003086342686343596
1.1079999999999999,9.424566497385012e-08,0.0005274632008950842
1.1648,5.069058827688422e-08,0.0007420246662182374
1.2246,5.3422095538855416e-08,0.0006732241348808179
1.2873999999999999,5.6103128451809635e-08,0.0007520775175161316
1.3534,5.8983531731815966e-08,0.0006934220379953097
1.4226999999999999,6.190141197599787e-08,0.0007279964452526612
1.4957,6.514287234544591e-08,0.0006600533336835669
1.5724,6.847810722945653e-08,0.0006505698428037464
1.653,7.191614841099091e-08,0.0007197507283500854
1.7377,7.55856380751833e-08,0.0007340705855173976
1.8268,7.951537909253812e-08,0.0006351562298658374
1.9204999999999999,8.356413782328729e-08,0.000695487577992949
2.019,8.783218786244693e-08,0.0005842376918918698
2.1225,9.211874935769278e-08,0.0005989870548354099
2.2313,9.693075349636628e-08,0.0005732146003396963
2.3068999999999997,6.724484588645097e-08,0.000685185545953506
2.3457,3.452053461646807e-08,0.0009562374008093121
2.3653,1.739501714182279e-08,0.0013851344554896246
2.3851,1.7617436518333955e-08,0.0014825360594633412
2.4659999999999997,7.193972891175184e-08,0.0006693044398422154
2.5924,1.1231392704819872e-07,0.0005440610284873002
2.7253,1.1815121102022307e-07,0.000481110834491195
2.8649999999999998,1.2401175234784357e-07,0.0005350506305599358
3.0119,1.3045893677243414e-07,0.0005240177874018738
3.1664,1.3719556616193467e-07,0.0005150964654041242
3.3287,1.4388056658570754e-07,0.0004522469742246015
3.6788,3.102038437486307e-07,0.00033628571448065473
4.0657,3.425782231363181e-07,0.00028959975632765494
4.4933,3.7835864743916495e-07,0.00027225479317702914
4.7237,2.0368715773302525e-07,0.00035506046987170505
4.9658,2.1396295509942842e-07,0.00040730616107241123
5.2204999999999995,2.250226682394181e-07,0.00032566127913292536
5.488099999999999,2.3655210449369338e-07,0.0003485783706393602
5.7695,2.487456076249751e-07,0.00032074356005259194
6.0653,2.611941147676115e-07,0.0003596077823257947
6.3763,2.746199205434481e-07,0.00031296244700896583
6.5924,1.9085167031533683e-07,0.0003596170363110553
6.7032,9.782440393020047e-08,0.0006140182702131883
7.0469,3.034609402054754e-07,0.00028935678405260236
7.4082,3.189559016241691e-07,0.00035763649542762903
7.787999999999999,3.351313114001372e-07,0.0002557748495748686
8.1873,3.526683251675432e-07,0.0003128247240478559
8.607099999999999,3.7050231215497946e-07,0.00027832330438799736
9.048399999999999,3.8950093738691046e-07,0.00027070961463106734
9.5123,4.095320015218385e-07,0.0002802783996689847
10.0,4.306273456768842e-07,0.00030873357158632753
10.513,1.0178353317745428e-06,0.00016488025335244252
11.052,1.0695195464083936e-06,0.00016928906382427585
11.618,1.1226434308506877e-06,0.00014950008473764813
12.213999999999999,1.1825483826688279e-06,0.00017564036594026986
12.523,6.130051469877814e-07,0.0002144640304997837
12.84,6.291399533651152e-07,0.0002283131658287592
13.498999999999999,1.307349456481178e-06,0.00016258360915993828
13.84,6.763102286201514e-07,0.00021414309417735117
14.190999999999999,3.1708441300250446e-07,0.0003251254500113319
14.549999999999999,0.0,
14.918,0.0,
15.683,0.0,
16.487,0.0,
16.904999999999998,0.0,
17.332,0.0,
19.64,0.0,
