Energy,Value,Error
1e-07,0.0,
4.1399e-07,0.0,
5.3158e-07,0.0,
6.825599999999999e-07,0.0,
8.7643e-07,1.4444973475365632e-13,1.0
1.1252999999999998e-06,4.367376928871837e-11,0.04656125735615965
1.445e-06,1.0687044627606633e-10,0.03168143033956358
1.8553999999999998e-06,1.3631339216002725e-10,0.03330201686778713
2.3824e-06,1.6282163506619764e-10,0.022418627787697046
3.059e-06,2.1787660770496154e-10,0.025704945900180243
3.9279e-06,2.678457709148558e-10,0.02142215979627109
5.043499999999999e-06,3.520026681228875e-10,0.018449968774039305
6.4759e-06,4.677981696032065e-10,0.01634874740294116
8.3153e-06,5.843073733687626e-10,0.013246651802816627
1.0677e-05,7.701175153587499e-10,0.0113943149527779
1.3710000000000001e-05,9.848722344860175e-10,0.011239548659759183
1.7604e-05,1.2398783261619093e-09,0.009355443627689603
2.2603e-05,1.5644857594001991e-09,0.00747531855467007
2.9023e-05,2.039956993511555e-09,0.009087520963847934
3.7266e-05,2.619608928734722e-09,0.007051470415260477
4.7851e-05,3.3550884251223737e-09,0.005978490673699881
6.1442e-05,4.33992008092377e-09,0.006095689374995261
7.889299999999999e-05,5.584819662837613e-09,0.004667872500832807
0.0001013,7.098972789943523e-09,0.0044757840270800734
0.00013006999999999998,9.217886455184146e-09,0.004329606054768176
0.00016702,1.181126842247191e-08,0.003239997679354725
0.00021444999999999998,1.5129225441733504e-08,0.0032563578839688583
0.00027536,1.9488678530462172e-08,0.0024775698606527815
0.00035358,2.4978518500347944e-08,0.002036560166910936
0.000454,3.211708886585377e-08,0.0019700700236883898
0.00058295,4.1166190081476953e-08,0.0016657423197206631
0.0007485199999999999,5.286391390463389e-08,0.001524691645394522
0.00096112,6.791662594929856e-08,0.001281054007230645
0.0012341,8.723688396671632e-08,0.0012447166938360584
0.0015845999999999998,1.1178769888215558e-07,0.0010606492659727656
0.0020347,1.438190893010268e-07,0.0010280804053757417
0.0022486999999999997,1.707660047246529e-07,0.0013361629106357863
0.0024852,1.8893533923352913e-07,0.0012920056872788356
0.0026125999999999996,2.0288064839093132e-07,0.0017661772220758708
0.0027465,2.1374920948275767e-07,0.0016343297225427387
0.0030354,2.303531354526743e-07,0.0012930317570406464
0.0033545999999999997,2.5458285458635726e-07,0.001186902650612342
0.0037074,2.817256201822688e-07,0.0010284262755904051
0.004307399999999999,3.1957905255688224e-07,0.0008072691639164912
0.0055308,3.9067846565336145e-07,0.0006651356388828654
0.0071017,5.015639770189872e-07,0.0004504970468903344
0.009118799999999998,6.44034167046107e-07,0.0004949556228205594
0.010595,7.856575358022375e-07,0.0005207584505967854
0.011708999999999999,8.894589462715128e-07,0.0005650487633767205
0.015033999999999999,1.0623062887929922e-06,0.00033340320693737427
0.019303999999999998,1.363456738726917e-06,0.0003037212482473461
0.021875,1.64439537357098e-06,0.0003818395868857622
0.023579,1.871002090213584e-06,0.0004344967683477068
0.024176,1.9839520533719135e-06,0.0008346993236877026
0.024787999999999998,2.032873618763436e-06,0.0008024717209532433
0.026057999999999998,2.0963963979621196e-06,0.0005590777682213965
0.027,2.027928936443009e-06,0.0007192051551477683
0.028501,2.1138297225650866e-06,0.000541073068754293
0.031827999999999995,2.404250575207128e-06,0.00033958489655709146
0.034307,2.6393694951385696e-06,0.000410634623687703
0.040868,3.0151179287407807e-06,0.00022001186609245228
0.046308999999999996,3.5723603266116774e-06,0.00023701854716411065
0.052475,3.8477948407142425e-06,0.0002569125692806314
0.056561999999999994,4.344492005646027e-06,0.0003097450977088452
0.06738,4.936809668492867e-06,0.00018982577417997408
0.07202399999999999,5.582189538961052e-06,0.0002771183103146357
0.079499,6.115222827546633e-06,0.0002328645278506908
0.08250299999999999,6.627259843601459e-06,0.0003260521266336708
0.086517,6.909196273980138e-06,0.00032950234274902894
0.098036,7.279558314859362e-06,0.0001946386841733918
0.11109,1.974318254692932e-06,0.0003679988885711282
0.11678999999999999,1.0151229976655283e-06,0.0008268724700429016
0.12276999999999999,1.0708872940504817e-06,0.0007561720166962532
0.12907,1.1289580691322087e-06,0.0007609364240890324
0.13569,1.1906716450525061e-06,0.0006709626999886236
0.14264,1.2499756813659937e-06,0.0007671075920209222
0.14995999999999998,1.315123265220317e-06,0.0007148751311208402
0.15764,1.3816900856811642e-06,0.0006614022695964131
0.16573,1.452628375114239e-06,0.000706738358707903
0.17421999999999999,1.5246680663038286e-06,0.0007143399934432459
0.18316,1.6035887794908785e-06,0.0005963786286652032
0.19255,1.6843662631407862e-06,0.0006343054994303209
0.20242,1.7692218489718767e-06,0.00047314038898852833
0.2128,1.8576234886638287e-06,0.0006100368671146423
0.22371,1.9523205475435555e-06,0.0005750778766223943
0.23518,2.0523309076422456e-06,0.0005216793664095378
0.24724,2.1561664477678254e-06,0.0005857732272503555
0.27324,2.3090030319407876e-06,0.0003784842052498753
0.28725,2.471919258982161e-06,0.0004754068654663553
0.29452,2.5788852354361643e-06,0.0007849372130936665
0.29721,2.6178730437770194e-06,0.001194291305274555
0.29849,2.6388914916640527e-06,0.001550835358177185
0.30196999999999996,2.6548236887067024e-06,0.0009422553920361305
0.33372999999999997,2.812983312501365e-06,0.0002907034043222588
0.36883,3.107188129795832e-06,0.0003635825899354967
0.38774,3.3407574499956936e-06,0.0004659883960128749
0.40762,3.5106277414467345e-06,0.0004598196973495875
0.45049,3.779096647435276e-06,0.0003005960828155649
0.49787,4.199301145446381e-06,0.0002906319439126395
0.5234,4.52000490860876e-06,0.00033727106658797086
0.55023,4.757709628663216e-06,0.0003856490724369836
0.57844,5.008115873150892e-06,0.0003387394120960775
0.6081,5.253939288448863e-06,0.00034275518479801373
0.63928,5.5284777124432355e-06,0.000289120709802685
0.67206,5.811771046923014e-06,0.00037116631902285905
0.70651,6.112853291256514e-06,0.0003286049591311445
0.74274,6.4257702431332045e-06,0.0002972188063022633
0.78082,6.749960744283785e-06,0.000282157032240955
0.82085,7.09258840877317e-06,0.00027737418882608925
0.8629399999999999,7.443987501434269e-06,0.00031112220486212254
0.90718,7.811253387198346e-06,0.0002922029912018792
0.9616699999999999,8.225036725083313e-06,0.00022951843765264902
1.0026,8.145564801597817e-06,0.0003098860534536404
1.1079999999999999,9.402439952235325e-07,0.0005229536308566406
1.1648,1.0124048536856568e-06,0.0007509526550620144
1.2246,1.0644575138201389e-06,0.0006648302866101021
1.2873999999999999,1.1167054869834055e-06,0.0007646218346831694
1.3534,1.1747821723446641e-06,0.0006887295646683759
1.4226999999999999,1.2364133744794367e-06,0.0007359568621027464
1.4957,1.2988350013706406e-06,0.0006292672873676921
1.5724,1.36544913377953e-06,0.0006428902161076118
1.653,1.4333903893720362e-06,0.0007322910007797804
1.7377,1.5079104718629324e-06,0.0007265653425064674
1.8268,1.5867628368599598e-06,0.0006367731598640018
1.9204999999999999,1.667953069943742e-06,0.0006909238726053572
2.019,1.7510558985752228e-06,0.0005842795721663545
2.1225,1.8384526838608426e-06,0.0005884303288614871
2.2313,1.937255859711238e-06,0.0005718403845162683
2.3068999999999997,2.014764189451384e-06,0.0006870396120532455
2.3457,2.0688265879313305e-06,0.000958140306257862
2.3653,2.0903408804215765e-06,0.0013849684705201394
2.3851,2.1132211263918312e-06,0.0014539882083107756
2.4659999999999997,2.155893973820451e-06,0.0006777646101250287
2.5924,2.244567313587765e-06,0.0005476464496334047
2.7253,2.3617822028705517e-06,0.000487562156088993
2.8649999999999998,2.4809252694303265e-06,0.0005395379084773147
3.0119,2.6111275232346483e-06,0.0005183210051683029
3.1664,2.7446583107425674e-06,0.0005036490250167391
3.3287,2.8824032109600353e-06,0.00045175369674503807
3.6788,3.106904514522612e-06,0.0003311309027051132
4.0657,3.4345177928991077e-06,0.0002814864634281916
4.4933,3.7929692037880123e-06,0.00027140322627609674
4.7237,4.082802690780711e-06,0.0003519841657775761
4.9658,4.291764129336138e-06,0.00040299524032705466
5.2204999999999995,4.51069448616426e-06,0.0003220766203608544
5.488099999999999,4.743186709288782e-06,0.0003496653061711835
5.7695,4.983774641928714e-06,0.00031964230984108804
6.0653,5.23216413330186e-06,0.00035431364390306767
6.3763,5.50027791243298e-06,0.0003090673324011734
6.5924,5.734455962414885e-06,0.00035753335892522656
6.7032,5.876485949271535e-06,0.0006136675009156695
7.0469,6.0769947100222804e-06,0.0002919901746609352
7.4082,6.385607260194673e-06,0.00035940955962312945
7.787999999999999,6.70936275090728e-06,0.0002607027276240243
8.1873,7.061419411805276e-06,0.00031375282688844296
8.607099999999999,7.419144062222762e-06,0.00027630548175543716
9.048399999999999,7.80118867188382e-06,0.0002709039217924114
9.5123,8.206964780499701e-06,0.00028110901026844563
10.0,8.630524187562822e-06,0.00031012829896938046
10.513,2.0367993613751478e-05,0.00016608521076512468
11.052,2.141542628223878e-05,0.00017072380156352198
11.618,2.2504620355237838e-05,0.00014879539629622198
12.213999999999999,2.3662483216521875e-05,0.00017421061781396223
12.523,2.4557557916132444e-05,0.00021187442272786706
12.84,2.5186079072188554e-05,0.00022696817972055005
13.498999999999999,2.613527437957506e-05,0.0001628124457761953
13.84,2.7121681753050386e-05,0.00021361241901244254
14.190999999999999,1.2664535687912293e-05,0.0003243196112295568
14.549999999999999,0.0,
14.918,0.0,
15.683,0.0,
16.487,0.0,
16.904999999999998,0.0,
17.332,0.0,
19.64,0.0,
