Energy,Value,Error
1e-07,6.320795407163147e-12,0.045904569006569924
4.1399e-07,9.573579455131739e-10,0.00815483936881397
5.3158e-07,3.2143325151116075e-09,0.012151529144300748
6.825599999999999e-07,4.462355478741686e-09,0.009683074135155973
8.7643e-07,6.0358544061162745e-09,0.007723103187218572
1.1252999999999998e-06,7.644412741784454e-09,0.006943200861234532
1.445e-06,9.368244741013977e-09,0.006457427816847683
1.8553999999999998e-06,1.1540812622136763e-08,0.006166688189852163
2.3824e-06,1.3502965411948927e-08,0.005753873515796774
3.059e-06,1.572231335068776e-08,0.004879233328526306
3.9279e-06,1.7890344635364645e-08,0.004233269208893968
5.043499999999999e-06,2.002436924195286e-08,0.004630460821043749
6.4759e-06,2.2009816069507677e-08,0.004401415093677275
8.3153e-06,2.3984749581879046e-08,0.003948308534888791
1.0677e-05,2.616321291380889e-08,0.003947668399327835
1.3710000000000001e-05,2.7623626319960005e-08,0.003920466385096323
1.7604e-05,2.8940908822689566e-08,0.0036255675567058473
2.2603e-05,3.046140957852791e-08,0.00362392331192993
2.9023e-05,3.186184843497659e-08,0.0033068841911873697
3.7266e-05,3.295441277582926e-08,0.003620041717750868
4.7851e-05,3.4173141251809806e-08,0.003144957400769817
6.1442e-05,3.522616818939947e-08,0.0032050636947158363
7.889299999999999e-05,3.6260312753204906e-08,0.003541861126365915
0.0001013,3.775837759637956e-08,0.002643292110539316
0.00013006999999999998,3.842201924307609e-08,0.0031062842385223
0.00016702,3.952722238466743e-08,0.0035172221936572994
0.00021444999999999998,4.079104002362582e-08,0.002795029512041519
0.00027536,4.232743180121638e-08,0.0031224629915102132
0.00035358,4.393375851351662e-08,0.0031560827120202363
0.000454,4.5734166714637487e-08,0.002806197331747541
0.00058295,4.8511172840277904e-08,0.0033164420577158787
0.0007485199999999999,5.1721682456645933e-08,0.0027391754240959384
0.00096112,5.542613118706458e-08,0.0025419563312985456
0.0012341,6.119413836957917e-08,0.002410128806481106
0.0015845999999999998,7.597042003259291e-08,0.0020921319365300945
0.0020347,8.431301512608199e-08,0.0023375021592194466
0.0022486999999999997,9.118569473214538e-08,0.003077885740813735
0.0024852,9.52144351890418e-08,0.003177252374473329
0.0026125999999999996,9.867776342025031e-08,0.004703620315548067
0.0027465,1.0122541250925297e-07,0.004115144971421355
0.0030354,1.0485680179327636e-07,0.0030288953229113927
0.0033545999999999997,1.1005735340671542e-07,0.003002344376348068
0.0037074,1.1598479094059508e-07,0.0029751323858776117
0.004307399999999999,1.2284351861626185e-07,0.0022104967619922134
0.0055308,1.3773246529149543e-07,0.0015221341658433784
0.0071017,1.5832244434691622e-07,0.0014924276110573013
0.009118799999999998,1.8511399720078997e-07,0.0014297269934972906
0.010595,2.1183085694454226e-07,0.0016341296630196648
0.011708999999999999,2.341999487497694e-07,0.00186817811661762
0.015033999999999999,2.835791620836811e-07,0.001209521477214336
0.019303999999999998,4.7584961849941455e-07,0.000896588444710528
0.021875,1.186487142075353e-06,0.0005734281363998255
0.023579,4.919944162404319e-06,0.00039880381771786595
0.024176,3.959149901343182e-05,0.0001862226685801471
0.024787999999999998,0.00011688343524439734,0.00011498276464177022
0.026057999999999998,4.8948249250748384e-05,0.00013647671829125483
0.027,3.204060836002744e-07,0.002661263781151091
0.028501,1.1403255972133101e-08,0.013307757371434291
0.031827999999999995,5.674479771193601e-08,0.00374847010740086
0.034307,1.68349940498098e-07,0.002961239848881237
0.040868,3.4156922152575604e-07,0.0011684780464940722
0.046308999999999996,5.498750150192559e-07,0.001044321994368873
0.052475,7.359647277978819e-07,0.0009396634150346872
0.056561999999999994,1.007800948113164e-06,0.0010281350717167824
0.06738,1.552610418743175e-06,0.0005911340895870756
0.07202399999999999,5.630951156564648e-06,0.0004121030723835227
0.079499,1.0795164905644577e-05,0.00018868477984391264
0.08250299999999999,3.13305633637946e-05,0.0001754912024243199
0.086517,5.433602017514214e-07,0.0014179503681594743
0.098036,5.997759962333293e-07,0.0010823408693060926
0.11109,1.259787174971093e-06,0.0006990910290584746
0.11678999999999999,1.9363462265724238e-06,0.000784868450107424
0.12276999999999999,2.7538237153630345e-06,0.0008844259354962069
0.12907,1.3904873280300567e-05,0.00029697032963157347
0.13569,6.806578682284015e-06,0.000466103459331292
0.14264,2.4468199584114897e-05,0.0001703410019271093
0.14995999999999998,7.062221468455985e-07,0.0015942076015505147
0.15764,1.7355695860841808e-06,0.0010999487583486245
0.16573,4.151547360943712e-06,0.0006601412526405789
0.17421999999999999,1.29158014225355e-05,0.0002810023597709987
0.18316,1.165520579943291e-05,0.0003378691408112656
0.19255,2.3543692749484856e-05,0.00018425655537757647
0.20242,1.2474703847348376e-06,0.0012225952436256337
0.2128,2.9363538011674796e-06,0.0008054847721472636
0.22371,1.388557583755787e-05,0.0002435271093115812
0.23518,2.692938928387234e-06,0.000892329274512468
0.24724,9.046958355602905e-06,0.00036016990251854143
0.27324,1.5016435519293501e-05,0.0001837600048445472
0.28725,1.829055390343215e-05,0.00024053066507189472
0.29452,7.066015053773651e-06,0.000657479353146909
0.29721,1.4109119339175194e-05,0.000815914608415771
0.29849,1.79434448435359e-05,0.0009922121034140186
0.30196999999999996,2.2212148373986773e-05,0.0005240019431798499
0.33372999999999997,2.7862946064075023e-05,0.00013082999517805824
0.36883,2.4835600107640957e-05,0.00012648967030786737
0.38774,3.360149244962848e-05,0.00016655659474023058
0.40762,2.198275913952663e-06,0.0008807161620108089
0.45049,5.744778612089565e-06,0.00037729848036790694
0.49787,9.345908065361064e-06,0.0002459866445576981
0.5234,8.814278119533248e-06,0.00043078764499911523
0.55023,1.1420154145326353e-05,0.00036384901663802935
0.57844,1.3159435571899774e-05,0.0003380809110871148
0.6081,2.4122391293581382e-05,0.0002260395220302952
0.63928,3.1749785431621716e-05,0.0002093616137779946
0.67206,2.714428610995586e-05,0.00016873333130130292
0.70651,1.2345635310078111e-05,0.00031422914843314795
0.74274,4.201396830089159e-06,0.0006709893708381628
0.78082,1.7095587815290576e-06,0.0009596103431446774
0.82085,1.8612384483099918e-06,0.0008929723691180834
0.8629399999999999,3.701743064040256e-06,0.0006173074089088095
0.90718,2.7950720317703028e-06,0.000666943144172028
0.9616699999999999,4.255541485978553e-06,0.00040490917402844124
1.0026,1.0357319624508362e-06,0.0013735007693698657
1.1079999999999999,1.205105047433756e-06,0.0007545020022860651
1.1648,1.4755802733549123e-06,0.0008736602446962964
1.2246,1.652885854915503e-06,0.000821319676069032
1.2873999999999999,4.2088943075094304e-07,0.001881340050408789
1.3534,5.653068838665565e-07,0.001315983330895854
1.4226999999999999,4.803385380245454e-07,0.0014948999624436906
1.4957,2.975103381595387e-07,0.0021956550811264657
1.5724,3.567354921159818e-07,0.002051589735822468
1.653,3.463942137248475e-07,0.0017515912644047592
1.7377,3.487941966070729e-07,0.0020301203281287397
1.8268,2.9520644236715e-07,0.00166216891962903
1.9204999999999999,1.978965362111937e-07,0.0022797636021082597
2.019,1.3091759808951342e-07,0.0033590496176057606
2.1225,1.3377851206782614e-07,0.002961467840156049
2.2313,1.2202518065172846e-07,0.0032576735968925697
2.3068999999999997,1.402138351506685e-07,0.003546205129781131
2.3457,9.528538089635611e-08,0.0060451620791566775
2.3653,1.5184813315184194e-07,0.006235206498970599
2.3851,1.1401748160964237e-07,0.007087734286388467
2.4659999999999997,7.611483982230556e-08,0.004557659394061466
2.5924,5.937453598505939e-08,0.004324965981599785
2.7253,7.127664296857273e-08,0.004068524427382757
2.8649999999999998,5.744271285780665e-08,0.005299710736542498
3.0119,5.143345517379376e-08,0.005349332710983244
3.1664,3.965345127967414e-08,0.005755537057313256
3.3287,4.5398503341346805e-08,0.0055035889982582775
3.6788,3.7325008911803903e-08,0.0040295884180393034
4.0657,2.5780094837358276e-08,0.005201185423847173
4.4933,2.6699684431407078e-08,0.005117402333442111
4.7237,2.2378497693345135e-08,0.007958608257638415
4.9658,2.0868969246276864e-08,0.0070035105276513845
5.2204999999999995,2.0789700814477054e-08,0.007236680534150109
5.488099999999999,1.9954120624686514e-08,0.007620634547816219
5.7695,1.962520274764756e-08,0.008061621432956094
6.0653,1.8747736476512578e-08,0.00826660179405309
6.3763,1.9296038035111943e-08,0.007313785440972481
6.5924,1.8690804295713418e-08,0.008918621738020655
6.7032,1.9375139123097873e-08,0.014148390128782131
7.0469,2.0330489380414872e-08,0.007670096925624898
7.4082,2.0676635491549025e-08,0.006805150640620007
7.787999999999999,2.17816885136713e-08,0.006596000208974773
8.1873,2.3080362008415883e-08,0.00637673717746699
8.607099999999999,2.421489564876304e-08,0.006102916999633286
9.048399999999999,2.7469242506847648e-08,0.00559925712886072
9.5123,3.0248185064557016e-08,0.005565905373420255
10.0,3.944136669578997e-08,0.0044636179859193475
10.513,5.7554557321604145e-08,0.004226266247892349
11.052,5.965501265308325e-08,0.003605912998724435
11.618,6.333809123481938e-08,0.003672090897867024
12.213999999999999,6.792113979945996e-08,0.0034792932887113587
12.523,6.840744325557878e-08,0.004902381524801758
12.84,6.786533392894619e-08,0.004573143009262757
13.498999999999999,6.461315900568816e-08,0.0032611648258273726
13.84,5.87664884745065e-08,0.005148339469136186
14.190999999999999,1.204552154124844e-08,0.01057741577618414
14.549999999999999,0.0,
14.918,0.0,
15.683,0.0,
16.487,0.0,
16.904999999999998,0.0,
17.332,0.0,
19.64,0.0,
