Energy,Value,Error
1e-07,0.0,
4.1399e-07,0.0,
5.3158e-07,0.0,
6.825599999999999e-07,0.0,
8.7643e-07,0.0,
1.1252999999999998e-06,1.0979233042395152e-11,0.04649530170887512
1.445e-06,2.6690093166656126e-11,0.0317049289224151
1.8553999999999998e-06,3.4064218098189656e-11,0.03295922488381109
2.3824e-06,4.062070719106161e-11,0.02249413846764344
3.059e-06,5.4422173712683395e-11,0.02567306668463019
3.9279e-06,6.645331554001628e-11,0.021632342018415955
5.043499999999999e-06,8.80109355505691e-11,0.018229395232716997
6.4759e-06,1.1681711998478035e-10,0.016486552382118845
8.3153e-06,1.4608965940097544e-10,0.013296555594361938
1.0677e-05,1.9230338788702224e-10,0.011441614430688665
1.3710000000000001e-05,2.458336663153867e-10,0.01113771169138564
1.7604e-05,3.094130347675034e-10,0.009220159568235672
2.2603e-05,3.908539010099792e-10,0.007389022731105161
2.9023e-05,5.084025102026144e-10,0.009031890882205311
3.7266e-05,6.546315415708988e-10,0.0070153370386773425
4.7851e-05,8.381416302060983e-10,0.0060196335395132855
6.1442e-05,1.0836584090835254e-09,0.00617831611862317
7.889299999999999e-05,1.3940395809008368e-09,0.004645349097080007
0.0001013,1.771728125754924e-09,0.004467271277641053
0.00013006999999999998,2.301025579306165e-09,0.004293874148959104
0.00016702,2.9487041368946864e-09,0.0031807457645271647
0.00021444999999999998,3.775632442155078e-09,0.0032900315352955645
0.00027536,4.865823969693384e-09,0.002470029114860968
0.00035358,6.235448164632675e-09,0.0020419479887841727
0.000454,8.018834344468845e-09,0.0019554388976484004
0.00058295,1.027628024822022e-08,0.0016739043297994691
0.0007485199999999999,1.3194453269093236e-08,0.001519017122589244
0.00096112,1.6951860968842476e-08,0.001310694012532913
0.0012341,2.17759312009584e-08,0.0012366208606733133
0.0015845999999999998,2.789594731684369e-08,0.0010623405393364934
0.0020347,3.590366381649473e-08,0.001015402210109192
0.0022486999999999997,1.7052960379532112e-08,0.0013182962419877626
0.0024852,1.886473470172113e-08,0.0013108322997477907
0.0026125999999999996,1.0128710048261045e-08,0.0017584994673948493
0.0027465,1.0662818002380643e-08,0.0016493052544557657
0.0030354,2.3006528784679885e-08,0.0013048053076360345
0.0033545999999999997,2.541001441074491e-08,0.0011985398916239535
0.0037074,2.8123078429854303e-08,0.0010585097019301362
0.004307399999999999,4.7848155220718475e-08,0.0008137419240477031
0.0055308,9.749514006970114e-08,0.0006673659770834667
0.0071017,1.2516657484415511e-07,0.0004639239385417652
0.009118799999999998,1.6070290586605684e-07,0.0004899176193101465
0.010595,1.1767158876512669e-07,0.0005200414929479271
0.011708999999999999,8.875363588442469e-08,0.0005632338493572036
0.015033999999999999,2.6500927724443517e-07,0.0003405932987363239
0.019303999999999998,3.401517193968941e-07,0.00030322877535004557
0.021875,2.0472965863742902e-07,0.0003735109889187512
0.023579,1.3577876362689925e-07,0.00044635140372803125
0.024176,4.760312545472767e-08,0.000853343006971253
0.024787999999999998,4.8712108357741183e-08,0.0007945647457948067
0.026057999999999998,1.0119750700702029e-07,0.0005936005811629547
0.027,7.497677938838798e-08,0.0006916612459263631
0.028501,1.196125497170604e-07,0.0005185522550165678
0.031827999999999995,2.650680309870156e-07,0.0003439700040200524
0.034307,1.974230857584784e-07,0.0004084367978550037
0.040868,5.226599303418405e-07,0.00022469461566692865
0.046308999999999996,4.334000672977303e-07,0.00025382272963087054
0.052475,4.911273011227701e-07,0.00025932740923414457
0.056561999999999994,3.2548734698965243e-07,0.0003155679751197204
0.06738,8.613365804926344e-07,0.00018525566164681468
0.07202399999999999,3.698823206263869e-07,0.00027576954652283115
0.079499,5.952844373722027e-07,0.00022739409648659883
0.08250299999999999,2.3919754813821256e-07,0.0003192522260275078
0.086517,3.1973678440138087e-07,0.0003266934113253066
0.098036,9.158319259580984e-07,0.00019346128268372357
0.11109,2.5411856169910025e-07,0.00036365839392230335
0.11678999999999999,5.0515708841255865e-08,0.0008316762164270687
0.12276999999999999,5.309858867964018e-08,0.000746468671504696
0.12907,5.599812183589124e-08,0.0007577823580104086
0.13569,5.881309676668037e-08,0.0006713786694425468
0.14264,6.100932317815425e-08,0.0007539986686767436
0.14995999999999998,6.476455045630052e-08,0.0007123551242644499
0.15764,6.797172177445404e-08,0.0006766756527338859
0.16573,7.173079443265235e-08,0.0006875905314482347
0.17421999999999999,7.522524945543084e-08,0.0007117614453907181
0.18316,7.924249687426358e-08,0.0006010728936051033
0.19255,8.323817349386125e-08,0.0006346722553945996
0.20242,8.757319941251005e-08,0.0005045995527086443
0.2128,9.182760604001106e-08,0.000619859815382954
0.22371,9.629705552038961e-08,0.0005730889247230605
0.23518,1.0201942307060327e-07,0.0005206387424702024
0.24724,1.0753245348139944e-07,0.0005818550832839458
0.27324,2.3086587372301238e-07,0.00037392376682699396
0.28725,1.2374412202001752e-07,0.0004670191096068285
0.29452,6.427485733035668e-08,0.0008200342239049309
0.29721,2.3834587112918054e-08,0.0011508019198048518
0.29849,1.1354555942365045e-08,0.001573786548425106
0.30196999999999996,3.079772790893125e-08,0.0009375433443362565
0.33372999999999997,2.8163376175559807e-07,0.0003042763540313406
0.36883,3.1115975096132716e-07,0.0003499457350621753
0.38774,1.675997016214078e-07,0.0004541474748183716
0.40762,1.7609596082875554e-07,0.0004534464109513911
0.45049,3.799009807558886e-07,0.00029855770878189035
0.49787,4.1974618003641553e-07,0.00029514196598484405
0.5234,2.261478971689695e-07,0.00033829542313163494
0.55023,2.3754012965970305e-07,0.0003866358911420397
0.57844,2.498640967142402e-07,0.0003422556457255716
0.6081,2.6277962629487376e-07,0.0003351341735084081
0.63928,2.762626821073089e-07,0.0002858134764279178
0.67206,2.900857526562038e-07,0.00036932907391144413
0.70651,3.0486718765020786e-07,0.0003293042626794504
0.74274,3.2058836693657787e-07,0.0002921568352231774
0.78082,3.369521805408251e-07,0.0002849831342200209
0.82085,3.5431396936160736e-07,0.0002721114558576431
0.8629399999999999,3.7259326306441146e-07,0.00031218879444427943
0.90718,3.912037079517992e-07,0.00029284063447592947
0.9616699999999999,4.814911464526357e-07,0.0002282802561043323
1.0026,3.405326845616814e-07,0.0003115176694404425
1.1079999999999999,9.393849134408653e-08,0.0005467717568124717
1.1648,5.058051346822813e-08,0.0007244681729484244
1.2246,5.331878255178672e-08,0.0006689555243699064
1.2873999999999999,5.595650538644033e-08,0.0007835202647217992
1.3534,5.881174679832429e-08,0.0006944624211964631
1.4226999999999999,6.172461643724763e-08,0.0007274034466233547
1.4957,6.497001093266438e-08,0.000659939016386925
1.5724,6.82906548281972e-08,0.000648019937561517
1.653,7.170774454326132e-08,0.0007159399241088566
1.7377,7.537583645898573e-08,0.000720244398369074
1.8268,7.929269304642458e-08,0.0006344488450609213
1.9204999999999999,8.332539103891222e-08,0.0006991162930317461
2.019,8.760649552367818e-08,0.0005845196243394236
2.1225,9.188076307949545e-08,0.0006033173215676373
2.2313,9.669784494414133e-08,0.0005753407880582723
2.3068999999999997,6.710360895649451e-08,0.0006978537093886581
2.3457,3.444835225039458e-08,0.000949266550834812
2.3653,1.735829446552717e-08,0.001403582532928173
2.3851,1.758247067178686e-08,0.0014786463426952326
2.4659999999999997,7.17906385487358e-08,0.0006787176813329964
2.5924,1.1211857388342582e-07,0.0005396035249057097
2.7253,1.1797952362496206e-07,0.0004824894516947699
2.8649999999999998,1.2385759414338823e-07,0.0005324530405372542
3.0119,1.3034754774554587e-07,0.0005169501632528574
3.1664,1.3708955599553108e-07,0.0005110553180276127
3.3287,1.4382043335803917e-07,0.0004452007946558168
3.6788,3.1015763517239033e-07,0.00033357760983477095
4.0657,3.426268262224762e-07,0.0002878843987057008
4.4933,3.7858015988138504e-07,0.00027059646535505176
4.7237,2.0385355701258725e-07,0.00035989304544602364
4.9658,2.1413944511276024e-07,0.000414135774665103
5.2204999999999995,2.2522495172599891e-07,0.0003257715107114572
5.488099999999999,2.3676897069984426e-07,0.0003578632914330405
5.7695,2.489714817578294e-07,0.00031938961009970454
6.0653,2.6139566588617884e-07,0.00035867807499506866
6.3763,2.7482605215868385e-07,0.0003140667981102453
6.5924,1.9099528069936944e-07,0.0003551479841613069
6.7032,9.78965743875361e-08,0.00060483289918718
7.0469,3.0367033907111967e-07,0.00029078871791733777
7.4082,3.1917414771552317e-07,0.0003618556603028589
7.787999999999999,3.353630199998142e-07,0.00025972786849239195
8.1873,3.5292216051927727e-07,0.00031047546079790515
8.607099999999999,3.707975609395737e-07,0.0002774503858561619
9.048399999999999,3.898463597693227e-07,0.0002715354845959436
9.5123,4.0994744366097007e-07,0.0002797304830483822
10.0,4.309485143136918e-07,0.0003049171108274265
10.513,1.0193180639996574e-06,0.00016626362337703076
11.052,1.0711314015493164e-06,0.00016956145229038815
11.618,1.1243838907644695e-06,0.0001503582086933026
12.213999999999999,1.1843430045605918e-06,0.00017407483113339523
12.523,6.13937619750518e-07,0.0002159650086588419
12.84,6.301101431415181e-07,0.0002254928414461474
13.498999999999999,1.3093874460599955e-06,0.00016218448089500736
13.84,6.774523970482837e-07,0.00021306085443961254
14.190999999999999,3.1773262677845374e-07,0.0003247327072211548
14.549999999999999,0.0,
14.918,0.0,
15.683,0.0,
16.487,0.0,
16.904999999999998,0.0,
17.332,0.0,
19.64,0.0,
