Energy,Value,Error
1e-07,7.82934e-14,0.4824
4.14e-07,3.51706e-12,0.0942
5.316e-07,5.73612e-12,0.0971
6.826e-07,1.01304e-11,0.0624
8.764e-07,2.24357e-11,0.0431
1.125e-06,3.75599e-11,0.037
1.445e-06,5.47382e-11,0.0352
1.855e-06,6.7066e-11,0.027
2.382e-06,9.17612e-11,0.0248
3.059e-06,1.13303e-10,0.0221
3.928e-06,1.47701e-10,0.0191
5.043e-06,1.95215e-10,0.0165
6.476e-06,2.5579e-10,0.0175
8.315e-06,3.32895e-10,0.0133
1.068e-05,4.31059e-10,0.0117
1.371e-05,5.53707e-10,0.0107
1.76e-05,7.10493e-10,0.0093
2.26e-05,9.24633e-10,0.0082
2.902e-05,1.19297e-09,0.0071
3.727e-05,1.55044e-09,0.0063
4.785e-05,1.99234e-09,0.0058
6.144e-05,2.56095e-09,0.0052
7.889e-05,3.28677e-09,0.0045
0.0001013,4.22865e-09,0.004
0.0001301,5.3998e-09,0.0034
0.000167,6.91881e-09,0.0031
0.0002145,8.94111e-09,0.0027
0.0002754,1.14099e-08,0.0024
0.0003536,1.45999e-08,0.0022
0.000454,1.86616e-08,0.0019
0.0005829,2.37174e-08,0.0017
0.0007485,3.01752e-08,0.0015
0.0009611,3.81642e-08,0.0013
0.001234,4.82442e-08,0.0012
0.001585,6.08766e-08,0.001
0.002035,7.62388e-08,0.0009
0.002249,3.55854e-08,0.0014
0.002485,3.87312e-08,0.0013
0.002613,2.07952e-08,0.0018
0.002747,2.16724e-08,0.0017
0.003035,4.59776e-08,0.0012
0.003355,5.07262e-08,0.0011
0.003707,5.50426e-08,0.0011
0.004307,9.19149e-08,0.0008
0.005531,1.814e-07,0.0006
0.007102,2.22116e-07,0.0005
0.009119,2.72976e-07,0.0005
0.01059,1.90609e-07,0.0006
0.01171,1.39942e-07,0.0007
0.01503,4.08002e-07,0.0004
0.0193,5.06123e-07,0.0003
0.02187,3.02054e-07,0.0004
0.02358,1.88394e-07,0.0006
0.02418,6.59391e-08,0.0009
0.02479,6.67152e-08,0.0009
0.02606,1.38432e-07,0.0006
0.027,1.01756e-07,0.0007
0.0285,1.61037e-07,0.0006
0.03183,3.5196e-07,0.0004
0.03431,2.57276e-07,0.0005
0.04087,6.64815e-07,0.0003
0.04631,5.32932e-07,0.0003
0.05248,5.92147e-07,0.0003
0.05656,3.76368e-07,0.0004
0.06738,9.78469e-07,0.0002
0.07202,4.08312e-07,0.0003
0.0795,6.56343e-07,0.0003
0.0825,2.81083e-07,0.0004
0.08652,4.09235e-07,0.0003
0.09804,7.50857e-07,0.0002
0.1111,2.12904e-07,0.0004
0.1168,6.80686e-08,0.0007
0.1228,1.46703e-07,0.0005
0.1291,1.30131e-07,0.0005
0.1357,3.8541e-09,0.0048
0.1426,2.92468e-08,0.0013
0.15,5.05439e-08,0.0009
0.1576,1.04641e-07,0.0006
0.1657,1.51361e-07,0.0005
0.1742,1.68125e-08,0.0018
0.1832,7.18526e-08,0.0007
0.1925,2.12011e-07,0.0004
0.2024,5.29576e-07,0.0003
0.2128,2.74412e-07,0.0004
0.2237,3.64602e-08,0.0015
0.2352,2.53703e-07,0.0004
0.2472,3.54747e-08,0.0013
0.2732,6.16168e-08,0.0011
0.2872,1.57458e-07,0.0006
0.2945,9.20623e-08,0.0007
0.2972,1.51991e-08,0.0019
0.2985,1.36628e-08,0.0019
0.302,5.21261e-08,0.0009
0.3337,6.74674e-07,0.0002
0.3688,1.66249e-07,0.0006
0.3877,1.44525e-07,0.0006
0.4076,1.88606e-07,0.0005
0.4505,6.10938e-07,0.0003
0.4979,9.71885e-07,0.0002
0.5234,3.16863e-07,0.0004
0.5502,5.5255e-07,0.0003
0.5784,7.61147e-07,0.0002
0.6081,2.45006e-07,0.0005
0.6393,2.23779e-07,0.0005
0.6721,3.64505e-07,0.0004
0.7065,4.09158e-07,0.0004
0.7427,6.61913e-07,0.0003
0.7808,4.51404e-07,0.0003
0.8209,6.37505e-07,0.0003
0.8629,6.31057e-07,0.0003
0.9072,2.83243e-07,0.0004
0.9617,2.92634e-07,0.0004
1.003,2.36775e-07,0.0004
1.108,3.63997e-07,0.0003
1.165,1.70912e-07,0.0005
1.225,2.07347e-07,0.0005
1.287,1.56772e-07,0.0005
1.353,2.02711e-07,0.0005
1.423,3.07101e-07,0.0004
1.496,2.75902e-07,0.0004
1.572,2.96675e-07,0.0004
1.653,2.27551e-07,0.0004
1.738,2.26509e-07,0.0004
1.827,2.29327e-07,0.0004
1.921,2.33971e-07,0.0004
2.019,2.16519e-07,0.0004
2.122,2.08248e-07,0.0004
2.231,2.37696e-07,0.0004
2.307,1.32702e-07,0.0005
2.346,7.57863e-08,0.0007
2.365,4.27791e-08,0.0009
2.385,4.08569e-08,0.0009
2.466,1.28333e-07,0.0006
2.592,1.84263e-07,0.0004
2.725,1.62401e-07,0.0005
2.865,1.76619e-07,0.0004
3.012,1.39178e-07,0.0005
3.166,1.55444e-07,0.0004
3.329,1.73401e-07,0.0004
3.679,2.57575e-07,0.0003
4.066,2.25253e-07,0.0004
4.493,1.97243e-07,0.0004
4.724,9.87246e-08,0.0005
4.966,9.66658e-08,0.0005
5.22,9.55111e-08,0.0005
5.488,9.45608e-08,0.0005
5.77,9.3818e-08,0.0005
6.065,9.35715e-08,0.0005
6.376,9.48095e-08,0.0005
6.592,6.27396e-08,0.0006
6.703,3.13372e-08,0.0008
7.047,9.29123e-08,0.0005
7.408,9.28374e-08,0.0005
7.788,9.37914e-08,0.0005
8.187,9.59872e-08,0.0005
8.607,1.0032e-07,0.0005
9.048,1.05768e-07,0.0005
9.512,1.14908e-07,0.0004
10.0,1.37813e-07,0.0004
10.51,2.52807e-07,0.0003
11.05,2.74464e-07,0.0003
11.62,2.99827e-07,0.0003
12.21,3.18438e-07,0.0003
12.52,1.69473e-07,0.0004
12.84,1.75431e-07,0.0004
13.5,3.52444e-07,0.0003
13.84,1.64143e-07,0.0004
14.19,6.09038e-08,0.0007
14.55,0.0,0.0
14.92,0.0,0.0
15.68,0.0,0.0
16.49,0.0,0.0
16.9,0.0,0.0
17.33,0.0,0.0
19.64,0.0,0.0
total,3.07892e-05,0.0
