Energy,Value,Error
1e-07,9.824392622374412e-13,0.2464
4.14e-07,5.831170945196876e-11,0.0789
5.316e-07,1.7795115360780456e-10,0.0995
6.826e-07,2.7331423881998263e-10,0.1277
8.764e-07,3.471408117875456e-10,0.082
1.125e-06,4.6257803093778653e-10,0.0663
1.445e-06,5.960540638342306e-10,0.0714
1.855e-06,6.634160806885909e-10,0.0644
2.382e-06,8.12202797966067e-10,0.0533
3.059e-06,1.1533390951911625e-09,0.0462
3.928e-06,1.513719725292038e-09,0.0804
5.043e-06,1.6252122177989967e-09,0.0392
6.476e-06,1.9111250810628016e-09,0.0369
8.315e-06,2.1450557101450558e-09,0.0332
1.068e-05,2.5268892633483177e-09,0.033
1.371e-05,2.6620817567577803e-09,0.0304
1.76e-05,2.798408382549175e-09,0.0262
2.26e-05,3.301438450641138e-09,0.0409
2.902e-05,3.4402536695335297e-09,0.0223
3.727e-05,1.4721099025394461e-08,0.0156
4.785e-05,1.8874638297072714e-08,0.0131
6.144e-05,2.3474261699073576e-08,0.0125
7.889e-05,2.8302068502815307e-08,0.0106
0.0001013,3.330482575510893e-08,0.0095
0.0001301,4.0606757514728184e-08,0.0091
0.000167,4.709792099794868e-08,0.0083
0.0002145,5.484229558238299e-08,0.0076
0.0002754,6.07474910993123e-08,0.0073
0.0003536,6.648309203133288e-08,0.007
0.000454,6.997615056709441e-08,0.0068
0.0005829,7.053420910255435e-08,0.0058
0.0007485,8.064807715580521e-08,0.0054
0.0009611,1.1400429024132887e-07,0.0042
0.001234,2.251668731838531e-07,0.0029
0.001585,2.2836730928486221e-07,0.003
0.002035,3.268766299559324e-07,0.0025
0.002249,4.358792239459362e-07,0.0035
0.002485,9.767676462526077e-07,0.002
0.002613,4.010048356523622e-07,0.005
0.002747,4.650370809275574e-07,0.0049
0.003035,5.486157795731733e-07,0.0031
0.003355,6.819290114968738e-07,0.0027
0.003707,8.354268430439875e-07,0.0025
0.004307,7.878752066101061e-07,0.002
0.005531,1.3220082879031977e-06,0.0012
0.007102,1.451006708228116e-06,0.0012
0.009119,2.5957530932682462e-06,0.0008
0.01059,2.6455029875908502e-06,0.0011
0.01171,3.048361683633589e-06,0.0012
0.01503,3.7172729022806895e-06,0.0007
0.0193,4.838538900554606e-06,0.0006
0.02187,5.7676564993457315e-06,0.0008
0.02358,6.305814313978471e-06,0.001
0.02418,6.58965769780327e-06,0.0018
0.02479,6.737522093667639e-06,0.0018
0.02606,6.961078225725736e-06,0.0012
0.027,7.2135424580052475e-06,0.0015
0.0285,7.463542429576418e-06,0.0012
0.03183,7.975627995100572e-06,0.0008
0.03431,8.493179412738845e-06,0.0009
0.04087,9.168982213982172e-06,0.0006
0.04631,9.996108972071594e-06,0.0007
0.05248,1.073218730074584e-05,0.0007
0.05656,1.1236027548621394e-05,0.0008
0.06738,1.1817850409231247e-05,0.0005
0.07202,1.2367089562394312e-05,0.0008
0.0795,1.2802646489238544e-05,0.0007
0.0825,1.3119878933795292e-05,0.0011
0.08652,1.3323263338223929e-05,0.001
0.09804,1.3538644595010154e-05,0.0006
0.1111,9.657020250846153e-06,0.0007
0.1168,9.252409296560463e-06,0.0012
0.1228,9.42523087359456e-06,0.0012
0.1291,9.583615752207072e-06,0.0012
0.1357,9.773749392817404e-06,0.0012
0.1426,9.90881672760799e-06,0.0012
0.15,1.0046966889722928e-05,0.0012
0.1576,1.0190251672673833e-05,0.0012
0.1657,1.0299798594525836e-05,0.0012
0.1742,1.0377342275233483e-05,0.0012
0.1832,1.0434469235858958e-05,0.0011
0.1925,1.0540513479376659e-05,0.0012
0.2024,1.0545469215118662e-05,0.0012
0.2128,1.0462986863527326e-05,0.0012
0.2237,1.0424936290792834e-05,0.0012
0.2352,1.0303798506633063e-05,0.0012
0.2472,1.0130942659639938e-05,0.0012
0.2732,9.848869464237896e-06,0.0009
0.2872,9.471050556356368e-06,0.0013
0.2945,9.194560735490242e-06,0.0018
0.2972,9.08867902299295e-06,0.003
0.2985,8.999202702301177e-06,0.0044
0.302,9.025584366228407e-06,0.0028
0.3337,8.524538994232996e-06,0.0009
0.3688,7.5980401869451065e-06,0.001
0.3877,6.759161495358697e-06,0.0016
0.4076,6.109286172173689e-06,0.0016
0.4505,5.080943117519795e-06,0.0013
0.4979,3.615271354184811e-06,0.0015
0.5234,2.4874297869205943e-06,0.0027
0.5502,1.8488978255012962e-06,0.0031
0.5784,1.4367808746450707e-06,0.0035
0.6081,1.214985808769056e-06,0.004
0.6393,1.0957802262069806e-06,0.0041
0.6721,9.888172261682574e-07,0.0042
0.7065,8.882671669828701e-07,0.0046
0.7427,7.943225983544239e-07,0.0047
0.7808,7.250587823024981e-07,0.005
0.8209,6.703331109160471e-07,0.0053
0.8629,6.29746853083741e-07,0.0051
0.9072,5.962653081165451e-07,0.0053
0.9617,5.64180923840028e-07,0.0051
1.003,5.367430840452707e-07,0.0064
1.108,5.105107370694908e-07,0.004
1.165,4.929123313189117e-07,0.006
1.225,4.69273477564662e-07,0.0058
1.287,4.408110242391925e-07,0.0063
1.353,3.9590948791244093e-07,0.0068
1.423,3.534149561099172e-07,0.0071
1.496,3.3485142691618434e-07,0.0081
1.572,3.1551153371418933e-07,0.0085
1.653,3.0579109184414735e-07,0.0071
1.738,2.9269966131280456e-07,0.0075
1.827,2.764723814398648e-07,0.0077
1.921,2.643699359890195e-07,0.0081
2.019,2.536535181604325e-07,0.0078
2.122,2.5184748552730496e-07,0.0083
2.231,2.447691308387348e-07,0.0081
2.307,2.460846711523841e-07,0.0094
2.346,2.4247587194919766e-07,0.0138
2.365,2.4323876877741815e-07,0.0376
2.385,2.366103517337439e-07,0.0198
2.466,2.3673494278353508e-07,0.0096
2.592,2.307877216162164e-07,0.0077
2.725,2.1642470532519363e-07,0.0082
2.865,2.061699814499347e-07,0.0083
3.012,1.9439419258723388e-07,0.0086
3.166,1.8089166824258144e-07,0.0087
3.329,1.6816286839319208e-07,0.0089
3.679,1.457051430525999e-07,0.007
4.066,1.195425988125695e-07,0.0079
4.493,9.198053123052023e-08,0.0083
4.724,7.603310270950908e-08,0.0125
4.966,6.952330284309152e-08,0.0149
5.22,6.397506655855842e-08,0.0135
5.488,6.324969241977954e-08,0.0136
5.77,6.67238228634128e-08,0.013
6.065,6.958521239140147e-08,0.0128
6.376,7.20887739462104e-08,0.0138
6.592,7.617995382783534e-08,0.0144
6.703,8.048677843712514e-08,0.022
7.047,8.582725372779691e-08,0.0113
7.408,9.713161341319262e-08,0.0108
7.788,1.0581967392636163e-07,0.0099
8.187,1.1744847154712686e-07,0.0098
8.607,1.2696834791859888e-07,0.0087
9.048,1.388036754640473e-07,0.0092
9.512,1.6724294464817396e-07,0.0077
10.0,2.2595420843281184e-07,0.007
10.51,3.82334141479538e-07,0.0051
11.05,4.0775204849431556e-07,0.0048
11.62,4.414469493124515e-07,0.0046
12.21,4.7313073820901235e-07,0.0044
12.52,4.887149848626346e-07,0.006
12.84,4.995179361507502e-07,0.0059
13.5,4.929775981100331e-07,0.0041
13.84,4.583998167039144e-07,0.0059
14.19,1.255030073307598e-07,0.0107
14.55,0.0,0.0
14.92,0.0,0.0
15.68,0.0,0.0
16.49,0.0,0.0
16.9,0.0,0.0
17.33,0.0,0.0
19.64,0.0,0.0
