Energy,Value,Error
1e-07,6.572308682986482e-14,0.6353
4.14e-07,9.08653359186216e-12,0.1566
5.316e-07,7.52859650955592e-11,0.2099
6.826e-07,8.95828540819394e-11,0.1167
8.764e-07,1.5097819542761446e-10,0.0998
1.125e-06,2.335095405886201e-10,0.0759
1.445e-06,3.496316804387133e-10,0.0691
1.855e-06,4.004958463269214e-10,0.058
2.382e-06,4.748580594068262e-10,0.0551
3.059e-06,6.74961518282442e-10,0.0535
3.928e-06,8.488042963344367e-10,0.0436
5.043e-06,1.0376004286207215e-09,0.0385
6.476e-06,1.3418411046358667e-09,0.0342
8.315e-06,1.7391876490413545e-09,0.0323
1.068e-05,2.086622225075345e-09,0.0287
1.371e-05,2.5580107931267584e-09,0.0264
1.76e-05,2.9318533325307857e-09,0.0258
2.26e-05,3.1661180582930357e-09,0.0306
2.902e-05,3.0956703814505364e-09,0.0219
3.727e-05,2.5391854480177754e-09,0.0236
4.785e-05,1.1592692998393535e-09,0.0323
6.144e-05,1.2248731373025242e-10,0.0975
7.889e-05,9.346087175310248e-09,0.0121
0.0001013,2.086673455447194e-08,0.0093
0.0001301,2.749098065883922e-08,0.008
0.000167,3.537668668249731e-08,0.0073
0.0002145,4.51549375336122e-08,0.007
0.0002754,5.649124138535809e-08,0.0058
0.0003536,7.086571327904586e-08,0.0051
0.000454,8.556646176970422e-08,0.0046
0.0005829,1.0259706839070591e-07,0.0051
0.0007485,1.4415756311041444e-07,0.0036
0.0009611,1.7524331235749631e-07,0.0032
0.001234,2.521123834095961e-07,0.0028
0.001585,3.112225006837887e-07,0.0024
0.002035,3.7000031099353647e-07,0.0021
0.002249,4.0750434505416733e-07,0.003
0.002485,3.675609541906674e-07,0.0033
0.002613,5.578170190633929e-07,0.0043
0.002747,5.886533178830262e-07,0.0039
0.003035,6.312660630381342e-07,0.0027
0.003355,6.837496357010231e-07,0.0025
0.003707,7.666073522164845e-07,0.0025
0.004307,9.388097416474395e-07,0.0018
0.005531,1.0348461948943883e-06,0.0014
0.007102,1.4584624755035474e-06,0.0012
0.009119,1.8392198109672548e-06,0.0011
0.01059,2.0720827676890387e-06,0.0012
0.01171,2.4459128443654542e-06,0.0014
0.01503,2.7438149405453205e-06,0.0008
0.0193,3.491085538607958e-06,0.0007
0.02187,4.089672655311445e-06,0.001
0.02358,4.760831958714748e-06,0.0011
0.02418,4.560044082029609e-06,0.0021
0.02479,3.445804532904491e-06,0.0024
0.02606,4.385961255971606e-06,0.0015
0.027,5.043841274418764e-06,0.0017
0.0285,5.26881155175273e-06,0.0013
0.03183,5.323824080610176e-06,0.0009
0.03431,5.662435047900905e-06,0.0011
0.04087,6.391995741917979e-06,0.0007
0.04631,8.80822427166867e-06,0.0006
0.05248,7.2354076645247454e-06,0.0007
0.05656,7.524428020063844e-06,0.0009
0.06738,9.434137075661451e-06,0.0005
0.07202,9.142733377728317e-06,0.0009
0.0795,8.736801555068903e-06,0.0007
0.0825,5.8180237941001775e-06,0.0015
0.08652,6.327281098341562e-06,0.0013
0.09804,6.9187943482358275e-06,0.0007
0.1111,5.804303699086404e-06,0.0008
0.1168,7.026990199725303e-06,0.0012
0.1228,7.202527125843303e-06,0.0011
0.1291,7.655883269488387e-06,0.0011
0.1357,8.369577181296778e-06,0.0011
0.1426,8.080800767002165e-06,0.0011
0.15,8.97950111818227e-06,0.001
0.1576,8.677976984948314e-06,0.0011
0.1657,7.861609148594676e-06,0.0011
0.1742,8.420586131670086e-06,0.0011
0.1832,7.010983463472883e-06,0.0012
0.1925,1.0554851786258185e-05,0.001
0.2024,1.1391415037459075e-05,0.0009
0.2128,1.157968115662952e-05,0.0009
0.2237,1.5335481298882217e-05,0.0008
0.2352,1.1213467045718622e-05,0.001
0.2472,1.721055103811671e-05,0.0007
0.2732,1.2843177765233923e-05,0.0006
0.2872,1.4978336198992809e-05,0.0008
0.2945,1.1384665780234784e-05,0.0014
0.2972,1.790526559378024e-05,0.0017
0.2985,1.916987050644959e-05,0.0025
0.302,1.2300760064040768e-05,0.0019
0.3337,1.5618536757050836e-05,0.0006
0.3688,2.169437369536726e-05,0.0005
0.3877,2.2759308603767703e-05,0.0006
0.4076,2.2588997567514872e-05,0.0007
0.4505,2.3957304477052882e-05,0.0004
0.4979,2.532387249038484e-05,0.0004
0.5234,2.647139921502051e-05,0.0006
0.5502,2.7398147223051266e-05,0.0006
0.5784,2.766995269394569e-05,0.0006
0.6081,2.774591845261906e-05,0.0006
0.6393,2.7636738583990873e-05,0.0006
0.6721,2.6912869998354793e-05,0.0006
0.7065,2.6218614158378026e-05,0.0006
0.7427,2.514299240125839e-05,0.0006
0.7808,2.370687394920426e-05,0.0006
0.8209,2.1746021594539397e-05,0.0007
0.8629,1.958634803350659e-05,0.0007
0.9072,1.731002043221236e-05,0.0007
0.9617,1.4716465730663381e-05,0.0007
1.003,1.2543593908330478e-05,0.0009
1.108,1.0073112973412194e-05,0.0007
1.165,6.1141246896466585e-06,0.0013
1.225,4.385544917948924e-06,0.0015
1.287,3.679089556749196e-06,0.0017
1.353,3.1874357017658258e-06,0.0022
1.423,2.8069520931694245e-06,0.0018
1.496,2.55922933003814e-06,0.002
1.572,2.324604094912542e-06,0.0021
1.653,2.1150953559438485e-06,0.0021
1.738,1.9354924398066385e-06,0.0022
1.827,1.7728945894378906e-06,0.0023
1.921,1.622324421722177e-06,0.0024
2.019,1.4767249635498919e-06,0.0024
2.122,1.3394517491435414e-06,0.003
2.231,1.0969662581522097e-06,0.0028
2.307,9.368660900057137e-07,0.0038
2.346,8.532745983080435e-07,0.0055
2.365,8.272954640947279e-07,0.0079
2.385,7.860823545885761e-07,0.0078
2.466,7.443796417322198e-07,0.0041
2.592,6.539002168522835e-07,0.0037
2.725,5.787086625420968e-07,0.0037
2.865,4.898670296287897e-07,0.004
3.012,4.2905742386631774e-07,0.0042
3.166,3.7792102070538276e-07,0.0045
3.329,3.2852022670989345e-07,0.0047
3.679,2.77504977897221e-07,0.0037
4.066,2.1881599588778087e-07,0.004
4.493,1.7656657783336085e-07,0.0046
4.724,1.5590621678688719e-07,0.0065
4.966,1.5263440508991316e-07,0.0067
5.22,1.5362896805855176e-07,0.0066
5.488,1.5549562649045981e-07,0.0065
5.77,1.637674396981594e-07,0.0063
6.065,1.7168466373136481e-07,0.006
6.376,1.8084185552694036e-07,0.0061
6.592,1.8846224211786285e-07,0.007
6.703,1.900583884840409e-07,0.0103
7.047,2.0036443096556214e-07,0.0055
7.408,2.1784279645487763e-07,0.0053
7.788,2.3302006036154557e-07,0.0051
8.187,2.5000078615300055e-07,0.0049
8.607,2.653578325535646e-07,0.0047
9.048,2.832897975647517e-07,0.0045
9.512,2.9321689023006735e-07,0.0045
10.0,3.5018535009011357e-07,0.004
10.51,6.219259950992391e-07,0.003
11.05,6.58825616350872e-07,0.0028
11.62,6.937923849516464e-07,0.0027
12.21,7.19125205369406e-07,0.0027
12.52,7.603996901526272e-07,0.0036
12.84,7.79053511217375e-07,0.0036
13.5,8.158743138553887e-07,0.0025
13.84,8.401631315440165e-07,0.0034
14.19,2.5883398636028097e-07,0.0057
14.55,0.0,0.0
14.92,0.0,0.0
15.68,0.0,0.0
16.49,0.0,0.0
16.9,0.0,0.0
17.33,0.0,0.0
19.64,0.0,0.0
