Energy,Value,Error
1e-07,7.247926132000641e-13,0.234
4.14e-07,1.0132429562499222e-10,0.065
5.316e-07,3.299605380237359e-10,0.0538
6.826e-07,5.70423592028944e-10,0.0393
8.764e-07,8.116125866495985e-10,0.0375
1.125e-06,1.127321959340475e-09,0.0313
1.445e-06,1.6336798131950036e-09,0.0258
1.855e-06,2.210390039915825e-09,0.0224
2.382e-06,3.0031459996445517e-09,0.0197
3.059e-06,3.758193249359622e-09,0.0188
3.928e-06,4.8427801110615465e-09,0.0156
5.043e-06,6.0927899089601895e-09,0.0147
6.476e-06,7.610178312903684e-09,0.0141
8.315e-06,9.000989400053072e-09,0.0128
1.068e-05,1.1338821809624716e-08,0.0122
1.371e-05,1.3779953332304209e-08,0.0134
1.76e-05,1.5844400828109706e-08,0.0106
2.26e-05,1.886123198923026e-08,0.0106
2.902e-05,2.1302348599642194e-08,0.0097
3.727e-05,2.5006048473851494e-08,0.0089
4.785e-05,2.8486039330658525e-08,0.0087
6.144e-05,3.1570706497981586e-08,0.0081
7.889e-05,3.5950190772167095e-08,0.0077
0.0001013,3.975540178052031e-08,0.0074
0.0001301,4.401859638981538e-08,0.0073
0.000167,4.825094878350038e-08,0.007
0.0002145,5.3130059341835686e-08,0.0066
0.0002754,5.776087383270008e-08,0.0061
0.0003536,7.153066822826067e-08,0.006
0.000454,1.0832835613657883e-07,0.0048
0.0005829,1.1940054988732927e-07,0.0047
0.0007485,1.3042941398882923e-07,0.0045
0.0009611,1.409087091555153e-07,0.0044
0.001234,1.5283486038208102e-07,0.0041
0.001585,1.637948613435178e-07,0.0039
0.002035,1.765817724112477e-07,0.0039
0.002249,1.857738484611777e-07,0.0057
0.002485,1.9069721066666016e-07,0.0055
0.002613,1.9614593760726973e-07,0.0085
0.002747,1.9901252350280564e-07,0.0072
0.003035,2.1045612262959658e-07,0.0052
0.003355,2.2994633338748732e-07,0.0048
0.003707,2.873275383111521e-07,0.0042
0.004307,6.823416837239577e-07,0.0019
0.005531,2.756987175471562e-07,0.0029
0.007102,3.76736240542397e-07,0.0023
0.009119,6.001550954697542e-07,0.0016
0.01059,1.6883047943808396e-06,0.0011
0.01171,3.5503758577415625e-07,0.0034
0.01503,7.121851780718077e-06,0.0004
0.0193,6.907867986265098e-06,0.0005
0.02187,4.1543470991155763e-07,0.004
0.02358,2.6006514467703656e-05,0.0004
0.02418,8.835373943751663e-06,0.0012
0.02479,2.1219530062477782e-08,0.047
0.02606,1.4266603565713526e-07,0.0113
0.027,3.236829331915646e-07,0.0084
0.0285,5.189983753691965e-07,0.0055
0.03183,8.43775123680056e-07,0.0028
0.03431,1.3194021859758336e-06,0.0026
0.04087,2.00591061896502e-06,0.0014
0.04631,7.589330050826094e-06,0.0006
0.05248,2.2439955308355172e-06,0.0015
0.05656,5.179960429828581e-06,0.0011
0.06738,6.124096950550788e-06,0.0007
0.07202,5.11087664266089e-06,0.0012
0.0795,8.957025250399849e-06,0.0007
0.0825,2.692340070303444e-06,0.0025
0.08652,4.305035524522116e-06,0.0017
0.09804,1.0015843399372942e-05,0.0006
0.1111,5.848780080381806e-06,0.0008
0.1168,1.560625534027855e-05,0.0008
0.1228,1.2679316750884151e-05,0.0008
0.1291,9.571603027627116e-06,0.0011
0.1357,2.149149038372437e-05,0.0007
0.1426,1.654402431178615e-05,0.0008
0.15,4.2495831142785305e-05,0.0004
0.1576,3.6724618811375714e-06,0.0019
0.1657,2.6375160571542673e-05,0.0006
0.1742,3.112834867507355e-05,0.0005
0.1832,1.42196268972318e-05,0.0008
0.1925,1.1831021683109271e-05,0.0009
0.2024,1.2247410753596856e-05,0.0009
0.2128,1.3527539749421227e-05,0.0008
0.2237,1.2465950311754171e-05,0.001
0.2352,2.0983896020355946e-05,0.0008
0.2472,1.1887621682735969e-05,0.001
0.2732,3.6205782064883715e-05,0.0003
0.2872,1.4818375289092777e-05,0.0008
0.2945,1.2233982875189746e-05,0.0013
0.2972,2.087207263144153e-05,0.0015
0.2985,1.9472050307510866e-05,0.0021
0.302,1.096045924153048e-05,0.002
0.3337,6.498317949543222e-06,0.001
0.3688,1.0217663057362238e-05,0.0007
0.3877,3.792957982810157e-06,0.0018
0.4076,3.997206508749815e-06,0.0018
0.4505,6.339719621874587e-06,0.001
0.4979,6.410250476818544e-06,0.0009
0.5234,7.4842327364044155e-06,0.0013
0.5502,9.156606388707109e-06,0.001
0.5784,8.565351344424478e-06,0.0011
0.6081,7.477103044734401e-06,0.0012
0.6393,7.2031119205552874e-06,0.0012
0.6721,6.4087103629320076e-06,0.0013
0.7065,5.366589091815842e-06,0.0014
0.7427,4.577118495396588e-06,0.0015
0.7808,4.386945050727763e-06,0.0015
0.8209,3.89523123406324e-06,0.0016
0.8629,3.347621944747187e-06,0.0018
0.9072,3.0226235784043073e-06,0.0018
0.9617,2.3439645808765383e-06,0.0019
1.003,1.8114885856068637e-06,0.0026
1.108,8.849572602003413e-07,0.0025
1.165,5.052896103944015e-07,0.0051
1.225,4.2804468386769706e-07,0.0052
1.287,3.8258294263797336e-07,0.0055
1.353,3.5268449649744647e-07,0.0057
1.423,3.295920130530725e-07,0.006
1.496,3.034867154240352e-07,0.0061
1.572,2.7969996159755206e-07,0.0066
1.653,2.567316432479811e-07,0.0065
1.738,2.345083305996e-07,0.007
1.827,2.180065153761644e-07,0.0073
1.921,1.9979826279094147e-07,0.0074
2.019,1.6648251788409664e-07,0.0077
2.122,1.462761773598919e-07,0.0084
2.231,1.3652286897952236e-07,0.0088
2.307,1.2835309029247388e-07,0.0114
2.346,1.2651449336676877e-07,0.0154
2.365,1.2528092729877724e-07,0.0415
2.385,1.1715948263743025e-07,0.0215
2.466,1.1436666660803964e-07,0.0122
2.592,1.0607822992227691e-07,0.01
2.725,9.691508536552841e-08,0.0103
2.865,8.982309384382905e-08,0.0106
3.012,7.825531913297636e-08,0.0118
3.166,6.891434904625497e-08,0.0117
3.329,6.383324070158668e-08,0.0119
3.679,5.683670941658644e-08,0.0094
4.066,4.7942915936941846e-08,0.0098
4.493,4.410644550182996e-08,0.0104
4.724,4.2452151437793783e-08,0.0152
4.966,4.125600422937723e-08,0.0148
5.22,4.060705211761859e-08,0.0147
5.488,4.081252870000927e-08,0.0142
5.77,4.137487297007687e-08,0.0141
6.065,4.193013985549105e-08,0.0147
6.376,4.32674625506167e-08,0.0135
6.592,4.4448211594512765e-08,0.0164
6.703,4.3751331198109805e-08,0.0251
7.047,4.800126412629937e-08,0.0126
7.408,5.1651267453951115e-08,0.0121
7.788,5.5020441173104197e-08,0.0119
8.187,5.6490102304051335e-08,0.012
8.607,6.064627993902192e-08,0.0109
9.048,6.759617897386212e-08,0.0105
9.512,7.479781127646166e-08,0.0097
10.0,9.48181386619645e-08,0.0084
10.51,1.4263051129821261e-07,0.0066
11.05,1.5105808597430345e-07,0.0066
11.62,1.5513787739033515e-07,0.0062
12.21,1.6844528430169262e-07,0.0061
12.52,1.7794656191615147e-07,0.008
12.84,1.767078180481126e-07,0.0078
13.5,1.7525241691243846e-07,0.006
13.84,1.679948347277772e-07,0.0078
14.19,3.9440364517331995e-08,0.0159
14.55,0.0,0.0
14.92,0.0,0.0
15.68,0.0,0.0
16.49,0.0,0.0
16.9,0.0,0.0
17.33,0.0,0.0
19.64,0.0,0.0
