Energy,Value,Error
1e-07,0.0,0.0
4.14e-07,6.336711966820775e-15,1.0
5.316e-07,0.0,0.0
6.826e-07,0.0,0.0
8.764e-07,0.0,0.0
1.125e-06,1.3727770841169131e-11,0.0466
1.445e-06,3.681962510076536e-11,0.0278
1.855e-06,5.743960960525762e-11,0.0227
2.382e-06,8.784520177985889e-11,0.0192
3.059e-06,1.1385478276144923e-10,0.0168
3.928e-06,9.667323309655969e-11,0.0184
5.043e-06,1.742224712040481e-11,0.0439
6.476e-06,2.418530277478757e-11,0.035
8.315e-06,4.2474722700166443e-10,0.0096
1.068e-05,8.221468785825367e-10,0.0077
1.371e-05,1.1391230025416276e-09,0.0071
1.76e-05,1.485218151413945e-09,0.0061
2.26e-05,1.8159375179906389e-09,0.0052
2.902e-05,1.9576952509762155e-09,0.0049
3.727e-05,2.1666406488705317e-09,0.0048
4.785e-05,3.299275921223201e-09,0.0038
6.144e-05,4.536341980975404e-09,0.0035
7.889e-05,5.649069400541157e-09,0.003
0.0001013,6.498249935708621e-09,0.0027
0.0001301,9.050425162652233e-09,0.0024
0.000167,1.1661039777011477e-08,0.002
0.0002145,1.3360036870568163e-08,0.0019
0.0002754,1.9798343479998113e-08,0.0016
0.0003536,2.531173819500305e-08,0.0014
0.000454,3.34392069736172e-08,0.0012
0.0005829,3.819970119937581e-08,0.0011
0.0007485,5.223439167780972e-08,0.001
0.0009611,7.296668164018431e-08,0.0008
0.001234,9.353129204674202e-08,0.0007
0.001585,1.152764406566822e-07,0.0006
0.002035,1.4629143891832673e-07,0.0006
0.002249,1.7416567070505328e-07,0.0008
0.002485,1.9305322930273501e-07,0.0008
0.002613,2.0808210805669863e-07,0.001
0.002747,2.1933628779674112e-07,0.001
0.003035,2.3752277654913245e-07,0.0007
0.003355,2.6431073994108965e-07,0.0007
0.003707,2.9477758746965063e-07,0.0006
0.004307,3.3621945853707794e-07,0.0005
0.005531,4.166443031286293e-07,0.0003
0.007102,5.432270436929032e-07,0.0003
0.009119,7.10718297808559e-07,0.0003
0.01059,8.809360789545136e-07,0.0003
0.01171,1.009509134637978e-06,0.0003
0.01503,1.227539383799971e-06,0.0002
0.0193,1.617967801358766e-06,0.0002
0.02187,1.989021122752406e-06,0.0002
0.02358,2.2211902527060145e-06,0.0003
0.02418,2.351236414207192e-06,0.0005
0.02479,2.4182784289946143e-06,0.0005
0.02606,2.522876457915908e-06,0.0003
0.027,2.6446372700175843e-06,0.0004
0.0285,2.778448687959246e-06,0.0003
0.03183,3.0457493407133103e-06,0.0002
0.03431,3.373317918419297e-06,0.0002
0.04087,3.882339799782957e-06,0.0001
0.04631,4.576565081763215e-06,0.0002
0.05248,5.189334608680261e-06,0.0001
0.05656,5.548867140033662e-06,0.0002
0.06738,6.099931903814939e-06,0.0001
0.07202,6.8501952281553155e-06,0.0002
0.0795,7.420782560498973e-06,0.0001
0.0825,7.920381420264327e-06,0.0002
0.08652,8.255847558917336e-06,0.0002
0.09804,8.685762947944209e-06,0.0001
0.1111,2.7723850901649565e-06,0.0002
0.1168,2.374182776076279e-06,0.0004
0.1228,2.5191467590864537e-06,0.0003
0.1291,2.677338489244674e-06,0.0003
0.1357,2.8393918096438417e-06,0.0003
0.1426,3.01175831751891e-06,0.0003
0.15,3.1819592143021297e-06,0.0003
0.1576,3.3691531226593896e-06,0.0003
0.1657,3.567487430777665e-06,0.0003
0.1742,3.781758532877241e-06,0.0003
0.1832,4.006023869005905e-06,0.0003
0.1925,4.237777475427912e-06,0.0003
0.2024,4.483847854864098e-06,0.0003
0.2128,4.725943489208738e-06,0.0003
0.2237,4.983613530246302e-06,0.0002
0.2352,5.2701609509168284e-06,0.0002
0.2472,5.5688423131754675e-06,0.0002
0.2732,6.044673013197211e-06,0.0002
0.2872,6.541308662286682e-06,0.0002
0.2945,6.800712017624407e-06,0.0003
0.2972,6.927619346516559e-06,0.0005
0.2985,6.975269342201836e-06,0.0007
0.302,7.0210093873491695e-06,0.0004
0.3337,7.4329435639330265e-06,0.0001
0.3688,8.18577903572023e-06,0.0001
0.3877,8.772473405078778e-06,0.0002
0.4076,9.162940335329559e-06,0.0002
0.4505,9.733693573319131e-06,0.0001
0.4979,1.0473887209386105e-05,0.0001
0.5234,1.1003081263841282e-05,0.0002
0.5502,1.1396319564689639e-05,0.0002
0.5784,1.184515253367098e-05,0.0002
0.6081,1.2280645382338525e-05,0.0002
0.6393,1.2669881418934124e-05,0.0001
0.6721,1.3034915825394736e-05,0.0001
0.7065,1.3369223410358003e-05,0.0001
0.7427,1.367191862648145e-05,0.0001
0.7808,1.400348281178017e-05,0.0001
0.8209,1.444926683647047e-05,0.0001
0.8629,1.4895272281445333e-05,0.0001
0.9072,1.5259450225313395e-05,0.0001
0.9617,1.5554421155324655e-05,0.0001
1.003,1.473648017985049e-05,0.0001
1.108,9.72655184503858e-06,0.0001
1.165,9.898055655712673e-06,0.0002
1.225,1.0031470287886785e-05,0.0002
1.287,1.0105688228058962e-05,0.0002
1.353,1.017741890892798e-05,0.0002
1.423,1.0263927774885531e-05,0.0002
1.496,1.0304320167104014e-05,0.0002
1.572,1.031410004706957e-05,0.0002
1.653,1.030517113998354e-05,0.0002
1.738,1.0275648896569972e-05,0.0002
1.827,1.0253332619145841e-05,0.0002
1.921,1.0220386734185109e-05,0.0002
2.019,1.0191139912462764e-05,0.0002
2.122,1.0153044539877182e-05,0.0002
2.231,1.0086667429777315e-05,0.0002
2.307,1.0012519009786012e-05,0.0002
2.346,9.964941635430308e-06,0.0003
2.365,9.936089789125287e-06,0.0004
2.385,9.919033882740571e-06,0.0004
2.466,9.864519850601894e-06,0.0002
2.592,9.751893467059964e-06,0.0002
2.725,9.602057681393318e-06,0.0002
2.865,9.430813076203104e-06,0.0002
3.012,9.238115989301387e-06,0.0002
3.166,9.022824511446906e-06,0.0002
3.329,8.82064867197943e-06,0.0002
3.679,8.49608229616988e-06,0.0001
4.066,8.023226520881453e-06,0.0001
4.493,7.520159422616648e-06,0.0001
4.724,7.171937292284257e-06,0.0002
4.966,6.966301799981417e-06,0.0002
5.22,6.785276248473842e-06,0.0002
5.488,6.628705342646977e-06,0.0002
5.77,6.529112294226511e-06,0.0002
6.065,6.453151085884114e-06,0.0002
6.376,6.394361637844682e-06,0.0002
6.592,6.36162645946923e-06,0.0002
6.703,6.346717841344139e-06,0.0003
7.047,6.336787883311511e-06,0.0002
7.408,6.311898497165875e-06,0.0002
7.788,6.295769634974828e-06,0.0002
8.187,6.32550484424172e-06,0.0002
8.607,6.448930515007004e-06,0.0002
9.048,6.6218294734467035e-06,0.0002
9.512,6.8145197757579005e-06,0.0002
10.0,7.1392231617334905e-06,0.0002
10.51,1.5428904791999995e-05,0.0001
11.05,1.6100474749589344e-05,0.0001
11.62,1.6820895065575058e-05,0.0001
12.21,1.7549772468700504e-05,0.0001
12.52,1.814416851195459e-05,0.0001
12.84,1.8596293429696976e-05,0.0001
13.5,1.9310819631060037e-05,0.0001
13.84,1.9989253726620377e-05,0.0001
14.19,8.902986451540587e-06,0.0002
14.55,1.427189674486035e-08,0.0063
14.92,1.1316841097095251e-08,0.007
15.68,8.098214632012468e-09,0.0061
16.49,4.917177609376042e-09,0.0075
16.9,3.296298713979822e-09,0.0137
17.33,2.4753793976498107e-09,0.0147
19.64,1.046845986697969e-09,0.0105
