Energy,Value,Error
1e-07,2.64305e-12,0.2919
4.14e-07,4.03406e-10,0.0325
5.316e-07,3.51005e-10,0.0482
6.826e-07,5.68546e-10,0.0292
8.764e-07,8.74877e-10,0.0228
1.125e-06,1.2548e-09,0.0188
1.445e-06,1.78206e-09,0.016
1.855e-06,2.43515e-09,0.0154
2.382e-06,3.12661e-09,0.0119
3.059e-06,4.01908e-09,0.0126
3.928e-06,4.96805e-09,0.0105
5.043e-06,5.88339e-09,0.0091
6.476e-06,6.95214e-09,0.0093
8.315e-06,8.15946e-09,0.0086
1.068e-05,9.35332e-09,0.0085
1.371e-05,1.03071e-08,0.0074
1.76e-05,1.15909e-08,0.007
2.26e-05,1.25927e-08,0.0062
2.902e-05,1.3934e-08,0.006
3.727e-05,1.52086e-08,0.0058
4.785e-05,1.62702e-08,0.0055
6.144e-05,1.7467e-08,0.0055
7.889e-05,1.88702e-08,0.0056
0.0001013,2.00758e-08,0.0054
0.0001301,2.1879e-08,0.0052
0.000167,2.34843e-08,0.005
0.0002145,2.54543e-08,0.0053
0.0002754,2.76141e-08,0.0044
0.0003536,3.03673e-08,0.0043
0.000454,3.35871e-08,0.0039
0.0005829,3.78202e-08,0.0039
0.0007485,4.32474e-08,0.0035
0.0009611,5.07955e-08,0.0033
0.001234,6.00776e-08,0.0031
0.001585,8.15236e-08,0.0025
0.002035,1.25319e-07,0.0021
0.002249,5.91899e-08,0.003
0.002485,6.54235e-08,0.0028
0.002613,3.574e-08,0.0038
0.002747,3.71497e-08,0.0035
0.003035,7.67462e-08,0.0027
0.003355,3.5305e-08,0.0036
0.003707,8.28587e-08,0.0025
0.004307,2.45674e-07,0.0014
0.005531,8.11993e-07,0.0008
0.007102,5.06793e-06,0.0002
0.009119,1.30324e-07,0.0024
0.01059,4.01815e-07,0.0014
0.01171,6.36691e-07,0.0011
0.01503,6.38141e-06,0.0002
0.0193,1.13927e-07,0.003
0.02187,1.39977e-07,0.0028
0.02358,1.8337e-07,0.0023
0.02418,9.0139e-08,0.003
0.02479,5.39731e-08,0.0041
0.02606,9.66346e-08,0.0032
0.027,1.33055e-07,0.0027
0.0285,2.81173e-07,0.0017
0.03183,1.53251e-07,0.0023
0.03431,2.08311e-08,0.0074
0.04087,1.65234e-07,0.0026
0.04631,1.40393e-07,0.0028
0.05248,1.85515e-07,0.0024
0.05656,1.03593e-07,0.0032
0.06738,1.49078e-07,0.0026
0.07202,1.40771e-08,0.008
0.0795,1.806e-08,0.0092
0.0825,9.33571e-09,0.0113
0.08652,1.36565e-08,0.0095
0.09804,4.46487e-08,0.0048
0.1111,5.03298e-08,0.0047
0.1168,2.21909e-08,0.0069
0.1228,2.79321e-08,0.0063
0.1291,3.7138e-08,0.0052
0.1357,4.13541e-08,0.0054
0.1426,2.1949e-08,0.0069
0.15,1.3705e-08,0.0097
0.1576,2.3663e-08,0.0069
0.1657,1.43016e-08,0.0089
0.1742,1.60042e-08,0.009
0.1832,3.19377e-08,0.0059
0.1925,3.38992e-08,0.0055
0.2024,2.05489e-08,0.0075
0.2128,1.54588e-08,0.0094
0.2237,1.85458e-08,0.0082
0.2352,2.64979e-08,0.0066
0.2472,1.62772e-08,0.0082
0.2732,5.76094e-08,0.0045
0.2872,1.81831e-08,0.008
0.2945,9.83616e-09,0.0125
0.2972,3.89873e-09,0.017
0.2985,1.99351e-09,0.0287
0.302,5.44177e-09,0.0137
0.3337,5.42907e-08,0.0045
0.3688,3.80729e-08,0.0054
0.3877,2.67029e-08,0.0063
0.4076,4.65403e-08,0.0047
0.4505,6.02107e-08,0.0043
0.4979,4.79002e-08,0.005
0.5234,2.54943e-08,0.0068
0.5502,2.21204e-08,0.0068
0.5784,3.88351e-08,0.005
0.6081,8.44169e-08,0.0029
0.6393,1.91954e-08,0.0076
0.6721,2.55353e-08,0.0063
0.7065,1.34754e-08,0.0081
0.7427,3.37138e-08,0.0046
0.7808,2.54243e-08,0.0055
0.8209,1.82283e-08,0.0064
0.8629,1.0018e-08,0.0091
0.9072,1.13864e-08,0.0084
0.9617,9.64451e-09,0.0096
1.003,5.48469e-09,0.0127
1.108,1.39179e-08,0.0077
1.165,5.00337e-09,0.014
1.225,4.13149e-09,0.0139
1.287,2.65626e-09,0.0175
1.353,1.86705e-09,0.0224
1.423,2.6701e-09,0.0177
1.496,1.88013e-09,0.0236
1.572,2.01001e-09,0.0218
1.653,2.22138e-09,0.0187
1.738,1.90246e-09,0.0216
1.827,1.76105e-09,0.0216
1.921,1.91644e-09,0.0198
2.019,1.7879e-09,0.0208
2.122,1.39193e-09,0.0244
2.231,1.32673e-09,0.0242
2.307,8.32121e-10,0.0332
2.346,3.5853e-10,0.0467
2.365,1.65918e-10,0.0714
2.385,2.3299e-10,0.0554
2.466,7.2106e-10,0.0345
2.592,1.01506e-09,0.0276
2.725,9.93431e-10,0.0264
2.865,9.1453e-10,0.0305
3.012,8.11048e-10,0.0327
3.166,8.23036e-10,0.0275
3.329,7.97096e-10,0.0302
3.679,1.23512e-09,0.0229
4.066,1.0992e-09,0.0267
4.493,9.97861e-10,0.0254
4.724,4.78388e-10,0.0378
4.966,4.93549e-10,0.0543
5.22,4.04286e-10,0.0396
5.488,4.0203e-10,0.0454
5.77,3.89185e-10,0.0426
6.065,3.46084e-10,0.0422
6.376,3.63405e-10,0.047
6.592,2.43609e-10,0.0547
6.703,1.2491e-10,0.0616
7.047,3.69919e-10,0.0385
7.408,3.8962e-10,0.0422
7.788,3.83833e-10,0.0353
8.187,4.08102e-10,0.036
8.607,4.09682e-10,0.0349
9.048,3.96744e-10,0.0348
9.512,3.97189e-10,0.035
10.0,5.88308e-10,0.0293
10.51,8.50762e-10,0.0229
11.05,9.59278e-10,0.0215
11.62,1.18231e-09,0.0189
12.21,1.41022e-09,0.0174
12.52,7.62822e-10,0.0263
12.84,8.67103e-10,0.0217
13.5,1.76215e-09,0.0157
13.84,8.11132e-10,0.0219
14.19,1.63784e-10,0.0489
14.55,0.0,0.0
14.92,0.0,0.0
15.68,0.0,0.0
16.49,0.0,0.0
16.9,0.0,0.0
17.33,0.0,0.0
19.64,0.0,0.0
