Energy,Value,Error
1e-07,0.0,0.0
4.14e-07,6.4663033977071e-13,0.2803
5.316e-07,7.408128726441378e-12,0.2163
6.826e-07,2.371803984882619e-11,0.1572
8.764e-07,5.2380508727846225e-11,0.092
1.125e-06,1.2380919238792724e-10,0.0635
1.445e-06,1.7535633479630138e-10,0.0672
1.855e-06,2.309891442126703e-10,0.0555
2.382e-06,2.922835916783469e-10,0.0424
3.059e-06,3.8701951260341016e-10,0.0392
3.928e-06,4.727559618040088e-10,0.0334
5.043e-06,6.287290463722353e-10,0.0307
6.476e-06,8.148358966139523e-10,0.0291
8.315e-06,1.024367778980203e-09,0.0255
1.068e-05,1.3331776826800635e-09,0.0217
1.371e-05,1.7407382164681872e-09,0.0194
1.76e-05,2.3057978970945713e-09,0.0166
2.26e-05,2.94380741342976e-09,0.0144
2.902e-05,3.78797251435945e-09,0.0126
3.727e-05,4.829589370398086e-09,0.0113
4.785e-05,6.203998251393618e-09,0.0103
6.144e-05,8.131766215870393e-09,0.0088
7.889e-05,1.0280391884801192e-08,0.008
0.0001013,1.3403207919917774e-08,0.0072
0.0001301,1.7082853841455087e-08,0.0062
0.000167,2.1726423665452242e-08,0.0055
0.0002145,2.7982638233582825e-08,0.0048
0.0002754,3.594304249838902e-08,0.0042
0.0003536,4.616955852860473e-08,0.0039
0.000454,5.9083138312736606e-08,0.0033
0.0005829,7.575591248464591e-08,0.0029
0.0007485,9.663572413735768e-08,0.0026
0.0009611,1.2459078289556334e-07,0.0023
0.001234,1.5987301308941832e-07,0.002
0.001585,2.0480260030710902e-07,0.0018
0.002035,2.6388310796589867e-07,0.0016
0.002249,3.1467392655660345e-07,0.0023
0.002485,3.465983009242218e-07,0.0022
0.002613,3.7472977077919687e-07,0.0029
0.002747,3.920822855454011e-07,0.0029
0.003035,4.230094946976334e-07,0.002
0.003355,4.661386547980856e-07,0.0019
0.003707,5.170853304140648e-07,0.0018
0.004307,5.880367623601512e-07,0.0017
0.005531,7.162440765549753e-07,0.001
0.007102,9.194353007157955e-07,0.0009
0.009119,1.1802088814944312e-06,0.0007
0.01059,1.4369106297557036e-06,0.0009
0.01171,1.6277836203624683e-06,0.001
0.01503,1.939043485842908e-06,0.0006
0.0193,2.482439074855297e-06,0.0005
0.02187,2.973360557932325e-06,0.0007
0.02358,3.2741761376736085e-06,0.0008
0.02418,3.430340719204574e-06,0.0014
0.02479,3.512175519393922e-06,0.0014
0.02606,3.6419642959951513e-06,0.0009
0.027,3.787636101870916e-06,0.0011
0.0285,3.964490775815796e-06,0.0009
0.03183,4.276243983308285e-06,0.0006
0.03431,4.654872706764453e-06,0.0007
0.04087,5.200736789790693e-06,0.0004
0.04631,5.879589131865665e-06,0.0005
0.05248,6.434731100779967e-06,0.0004
0.05656,6.819177762560269e-06,0.0006
0.06738,7.1005819242053076e-06,0.0004
0.07202,7.078828882209395e-06,0.0006
0.0795,6.710350897788968e-06,0.0005
0.0825,6.153109481954268e-06,0.0008
0.08652,5.664381041668436e-06,0.0007
0.09804,4.3930174909882476e-06,0.0005
0.1111,2.1429827219950244e-06,0.0007
0.1168,1.9646379461031254e-06,0.0013
0.1228,1.4764299263941707e-06,0.0015
0.1291,2.1478991403696406e-06,0.0012
0.1357,2.2593191253285267e-06,0.0012
0.1426,2.351354686820031e-06,0.0011
0.15,2.454489345664367e-06,0.0011
0.1576,2.5510024811690117e-06,0.0011
0.1657,2.6434818886613452e-06,0.0011
0.1742,2.762071231364589e-06,0.001
0.1832,2.866774292351776e-06,0.001
0.1925,2.9817215978078116e-06,0.001
0.2024,3.110342428958244e-06,0.001
0.2128,3.213354984928287e-06,0.0009
0.2237,3.3352477267057465e-06,0.0009
0.2352,3.41701201857813e-06,0.0009
0.2472,3.854063144373954e-06,0.0008
0.2732,6.622776002390012e-06,0.0004
0.2872,2.1802828098320424e-05,0.0003
0.2945,2.2874629669202377e-05,0.0005
0.2972,2.4779018699355952e-06,0.0029
0.2985,9.7950337273875e-07,0.0075
0.302,7.25987700385454e-07,0.0056
0.3337,3.389458011151875e-06,0.0008
0.3688,1.2439794047848674e-05,0.0003
0.3877,4.2916838757715276e-06,0.0009
0.4076,2.6845961166133467e-06,0.0013
0.4505,7.013056329740353e-06,0.0005
0.4979,9.660322207790473e-06,0.0004
0.5234,9.177356371983637e-06,0.0006
0.5502,1.0309024747984184e-05,0.0006
0.5784,1.1079324747855899e-05,0.0005
0.6081,1.1783697597940919e-05,0.0005
0.6393,1.2306591984355337e-05,0.0005
0.6721,1.1366307492420856e-05,0.0005
0.7065,1.3896508583501822e-05,0.0005
0.7427,1.5673379830618967e-05,0.0004
0.7808,2.018876250123722e-05,0.0004
0.8209,2.0567161156061763e-05,0.0004
0.8629,1.855595593908956e-05,0.0004
0.9072,1.46410233387383e-05,0.0005
0.9617,1.8034571062244107e-05,0.0004
1.003,1.9766821970529053e-05,0.0004
1.108,2.379624664155461e-05,0.0002
1.165,7.869310175294463e-06,0.0007
1.225,1.5439481324527692e-05,0.0004
1.287,1.1605898323784832e-05,0.0005
1.353,5.464221193501733e-06,0.0008
1.423,4.636443896448873e-06,0.0009
1.496,2.0436135420450304e-06,0.0015
1.572,4.843340571072717e-06,0.0009
1.653,9.873868348357542e-06,0.0006
1.738,1.0518593065577908e-05,0.0006
1.827,8.248236551508112e-06,0.0006
1.921,5.603061637559733e-06,0.0008
2.019,5.148075705915962e-06,0.0008
2.122,4.65263966448046e-06,0.0009
2.231,3.989269482083488e-06,0.0009
2.307,3.5324429768276053e-06,0.0012
2.346,3.3547344369549808e-06,0.0017
2.365,3.2969258844104222e-06,0.0025
2.385,3.2441595784006397e-06,0.0025
2.466,3.1734867401776376e-06,0.0013
2.592,3.0323660832320174e-06,0.001
2.725,2.866004599929023e-06,0.0011
2.865,2.7143355604470596e-06,0.0011
3.012,2.5660744909815747e-06,0.0011
3.166,2.4128916242182367e-06,0.0012
3.329,2.263091976293623e-06,0.0012
3.679,2.0137239014086837e-06,0.0009
4.066,1.7572507073223427e-06,0.0009
4.493,1.5201943641271796e-06,0.0009
4.724,1.3952074546655302e-06,0.0014
4.966,1.3282187510772894e-06,0.0014
5.22,1.2660477731085132e-06,0.0014
5.488,1.2149444026760908e-06,0.0014
5.77,1.1644523557470154e-06,0.0014
6.065,1.1269439551487625e-06,0.0014
6.376,1.1007811200090135e-06,0.0014
6.592,1.089409358628744e-06,0.0017
6.703,1.0807625673026766e-06,0.0024
7.047,1.085741594535444e-06,0.0014
7.408,1.0847362660384854e-06,0.0014
7.788,1.1070416940517088e-06,0.0013
8.187,1.136330819543556e-06,0.0013
8.607,1.1445642848212965e-06,0.0013
9.048,1.1489173028239985e-06,0.0013
9.512,1.1820976372662757e-06,0.0013
10.0,1.4653274427772317e-06,0.0011
10.51,2.5845716394851414e-06,0.0008
11.05,2.7403615329798294e-06,0.0008
11.62,2.8839109125826005e-06,0.0008
12.21,3.0342918306998073e-06,0.0008
12.52,3.1770721769365337e-06,0.001
12.84,3.2752326168428644e-06,0.001
13.5,3.2987934475436856e-06,0.0007
13.84,2.9404423082133303e-06,0.001
14.19,1.0370641053312442e-06,0.0018
14.55,0.0,0.0
14.92,0.0,0.0
15.68,0.0,0.0
16.49,0.0,0.0
16.9,0.0,0.0
17.33,0.0,0.0
19.64,0.0,0.0
