Energy,Value,Error
1e-07,0.0,0.0
4.14e-07,2.8375884791895326e-13,1.0
5.316e-07,8.8613413531624e-12,0.6026
6.826e-07,3.148776945257097e-11,0.3286
8.764e-07,5.840899286527102e-11,0.2445
1.125e-06,1.5719195434115827e-10,0.1605
1.445e-06,2.0726309189545413e-10,0.1453
1.855e-06,1.9922860730610387e-10,0.2124
2.382e-06,2.1800856239985804e-10,0.1463
3.059e-06,3.6553299774635925e-10,0.1172
3.928e-06,4.944362912961755e-10,0.1045
5.043e-06,6.568836019844127e-10,0.0933
6.476e-06,7.306981886938799e-10,0.0808
8.315e-06,9.382013294971915e-10,0.0795
1.068e-05,1.250964193327413e-09,0.0697
1.371e-05,1.6710052254479552e-09,0.058
1.76e-05,2.4572271474367295e-09,0.0493
2.26e-05,3.1630866767462125e-09,0.0484
2.902e-05,3.8085895998311165e-09,0.0414
3.727e-05,4.981985340782634e-09,0.0358
4.785e-05,6.216203992759154e-09,0.0321
6.144e-05,8.29245266200614e-09,0.0277
7.889e-05,1.05119980100721e-08,0.0246
0.0001013,1.352063292044856e-08,0.0229
0.0001301,1.7667746215086353e-08,0.0199
0.000167,2.2233852010118445e-08,0.0178
0.0002145,2.8209950977603218e-08,0.016
0.0002754,3.5950044883459455e-08,0.0139
0.0003536,4.5213735800762266e-08,0.0123
0.000454,5.7996437806480016e-08,0.011
0.0005829,7.50072682679491e-08,0.0096
0.0007485,9.199115632396655e-08,0.0086
0.0009611,1.1472306937382061e-07,0.0077
0.001234,1.457903060805582e-07,0.007
0.001585,1.7848505330186386e-07,0.0062
0.002035,2.236988685304162e-07,0.0055
0.002249,2.5941031955669627e-07,0.0078
0.002485,2.849409625136982e-07,0.0075
0.002613,3.082068892498948e-07,0.0127
0.002747,3.2281872086834175e-07,0.0099
0.003035,3.583638619593304e-07,0.0068
0.003355,4.275693545346266e-07,0.0061
0.003707,5.493802360962905e-07,0.0057
0.004307,8.979281666183369e-07,0.0035
0.005531,2.8439589851157576e-06,0.0015
0.007102,1.2135581199562861e-06,0.0023
0.009119,1.9592996332403558e-07,0.0072
0.01059,7.19685672530023e-07,0.0047
0.01171,1.0450397500635596e-06,0.0044
0.01503,1.4032529929190406e-06,0.0025
0.0193,1.8818877414717508e-06,0.002
0.02187,2.403065552103276e-06,0.0024
0.02358,2.9317485071284023e-06,0.0029
0.02418,3.438200805661206e-06,0.0045
0.02479,3.7919122092452073e-06,0.0043
0.02606,4.546665880319914e-06,0.0027
0.027,5.901912318955087e-06,0.0028
0.0285,9.234948426589504e-06,0.0018
0.03183,1.138182206215677e-05,0.001
0.03431,1.2099731452562293e-06,0.005
0.04087,2.621881952465119e-06,0.0022
0.04631,4.836452871646572e-06,0.0018
0.05248,9.82592543283093e-06,0.0012
0.05656,1.2442253652843732e-05,0.0012
0.06738,4.546873485264672e-06,0.0016
0.07202,1.006536161929175e-05,0.0016
0.0795,1.0370784259192756e-05,0.0012
0.0825,1.901136132897918e-06,0.0051
0.08652,2.142744195364422e-06,0.0046
0.09804,2.6149048874975944e-06,0.0023
0.1111,2.7142107510919513e-06,0.0024
0.1168,2.461586184556921e-06,0.0038
0.1228,2.605744050882554e-06,0.0037
0.1291,2.7610078155203793e-06,0.0037
0.1357,2.8849801234343376e-06,0.0035
0.1426,3.0263761544932244e-06,0.0037
0.15,3.2019426953692087e-06,0.0034
0.1576,3.3160826888332087e-06,0.0033
0.1657,3.4728721364413317e-06,0.0032
0.1742,3.6463666078988993e-06,0.0031
0.1832,3.8538036568784265e-06,0.003
0.1925,4.088194603496273e-06,0.003
0.2024,4.3815742332634956e-06,0.0029
0.2128,4.638849556780351e-06,0.0028
0.2237,4.856174020095355e-06,0.0027
0.2352,5.0671701379319894e-06,0.0027
0.2472,5.27731176821117e-06,0.0026
0.2732,5.735602800221802e-06,0.0018
0.2872,6.205979049063678e-06,0.0024
0.2945,6.524419023276313e-06,0.0032
0.2972,6.630686624129266e-06,0.0053
0.2985,6.696940414815952e-06,0.0078
0.302,6.864392182301996e-06,0.0046
0.3337,7.1819802062262565e-06,0.0015
0.3688,7.941608594810948e-06,0.0015
0.3877,8.546891229863271e-06,0.002
0.4076,9.073238033105993e-06,0.0019
0.4505,9.88569447360921e-06,0.0013
0.4979,1.099227375543291e-05,0.0012
0.5234,1.1830082244037051e-05,0.0017
0.5502,1.2407196349890389e-05,0.0017
0.5784,1.3035697738046324e-05,0.0016
0.6081,1.3677587092618732e-05,0.0016
0.6393,1.4181278988484496e-05,0.0015
0.6721,1.4719453545827355e-05,0.0015
0.7065,1.5024081481876698e-05,0.0015
0.7427,1.5348758517040315e-05,0.0015
0.7808,1.5593669186261273e-05,0.0015
0.8209,1.545263600811579e-05,0.0015
0.8629,1.5143200483881111e-05,0.0015
0.9072,1.4411258005697595e-05,0.0015
0.9617,1.3429484402790008e-05,0.0014
1.003,1.2129759665694674e-05,0.0019
1.108,1.1189713965798431e-05,0.0013
1.165,1.1617957224524243e-05,0.0018
1.225,1.1803720998641325e-05,0.0017
1.287,1.1946873576404584e-05,0.0017
1.353,1.1980483129621359e-05,0.0017
1.423,1.1967217651311463e-05,0.0017
1.496,1.1911034531860214e-05,0.0017
1.572,1.1821552113514293e-05,0.0017
1.653,1.1662530982314405e-05,0.0017
1.738,1.1429065327266329e-05,0.0018
1.827,1.1190452467005684e-05,0.0018
1.921,1.0871066531552455e-05,0.0018
2.019,1.0420215715297159e-05,0.0019
2.122,9.680464975857341e-06,0.0019
2.231,9.18137280743568e-06,0.002
2.307,8.82740573557762e-06,0.0024
2.346,8.593114261650057e-06,0.0035
2.365,8.554708105369555e-06,0.0051
2.385,8.412437786080884e-06,0.0052
2.466,8.252670397507867e-06,0.0025
2.592,7.885516391174336e-06,0.0021
2.725,7.4064348813584395e-06,0.0022
2.865,6.8368569445663536e-06,0.0023
3.012,6.289596550973919e-06,0.0023
3.166,5.720986536502081e-06,0.0024
3.329,5.198653763699192e-06,0.0025
3.679,4.280616240653304e-06,0.002
4.066,3.4549325772988655e-06,0.0021
4.493,2.835423652336389e-06,0.0023
4.724,2.559575414407822e-06,0.0033
4.966,2.4401312171105045e-06,0.0033
5.22,2.2765400888021604e-06,0.0034
5.488,2.2014325996934536e-06,0.0034
5.77,2.141346550205129e-06,0.0034
6.065,2.1066549072770146e-06,0.0034
6.376,2.108110200181851e-06,0.0033
6.592,2.0951888562034633e-06,0.004
6.703,2.1154608265891062e-06,0.0057
7.047,2.0986154034746122e-06,0.0033
7.408,2.1065282921332038e-06,0.0032
7.788,2.1272763439551764e-06,0.0032
8.187,2.1642623838048945e-06,0.0031
8.607,2.2501466297352482e-06,0.0031
9.048,2.3784663500274133e-06,0.003
9.512,2.5582668277903438e-06,0.0029
10.0,3.0584478236276567e-06,0.0026
10.51,6.048499139043395e-06,0.0018
11.05,6.3958734072549965e-06,0.0018
11.62,6.774058271131283e-06,0.0017
12.21,7.152707839157252e-06,0.0017
12.52,7.42192184248832e-06,0.0023
12.84,7.631251066791414e-06,0.0023
13.5,7.726498452527388e-06,0.0016
13.84,7.391711618231601e-06,0.0023
14.19,2.8645091035040714e-06,0.0036
14.55,0.0,0.0
14.92,0.0,0.0
15.68,0.0,0.0
16.49,0.0,0.0
16.9,0.0,0.0
17.33,0.0,0.0
19.64,0.0,0.0
