Energy,Value,Error
1e-07,4.53999e-13,0.6353
4.14e-07,1.29092e-11,0.1566
5.316e-07,1.88234e-11,0.2099
6.826e-07,2.23973e-11,0.1167
8.764e-07,3.77315e-11,0.0998
1.125e-06,5.8311e-11,0.0759
1.445e-06,8.7522e-11,0.0691
1.855e-06,1.00034e-10,0.058
2.382e-06,1.18741e-10,0.0551
3.059e-06,1.6884e-10,0.0535
3.928e-06,2.12237e-10,0.0436
5.043e-06,2.59266e-10,0.0385
6.476e-06,3.35597e-10,0.0342
8.315e-06,4.34724e-10,0.0323
1.068e-05,5.22306e-10,0.0287
1.371e-05,6.3887e-10,0.0264
1.76e-05,7.32299e-10,0.0258
2.26e-05,7.91691e-10,0.0306
2.902e-05,7.74027e-10,0.0219
3.727e-05,6.35313e-10,0.0236
4.785e-05,2.89681e-10,0.0323
6.144e-05,3.06206e-11,0.0975
7.889e-05,2.33646e-09,0.0121
0.0001013,5.21735e-09,0.0093
0.0001301,6.87871e-09,0.008
0.000167,8.83322e-09,0.0073
0.0002145,1.1303e-08,0.007
0.0002754,1.4118e-08,0.0058
0.0003536,1.77123e-08,0.0051
0.000454,2.13857e-08,0.0046
0.0005829,2.56409e-08,0.0051
0.0007485,3.60474e-08,0.0036
0.0009611,4.38121e-08,0.0032
0.001234,6.30124e-08,0.0028
0.001585,7.79063e-08,0.0024
0.002035,9.24673e-08,0.0021
0.002249,4.07463e-08,0.003
0.002485,3.66778e-08,0.0033
0.002613,2.80171e-08,0.0043
0.002747,2.94388e-08,0.0039
0.003035,6.29385e-08,0.0027
0.003355,6.85393e-08,0.0025
0.003707,7.64853e-08,0.0025
0.004307,1.40839e-07,0.0018
0.005531,2.58843e-07,0.0014
0.007102,3.64627e-07,0.0012
0.009119,4.59775e-07,0.0011
0.01059,3.0988e-07,0.0012
0.01171,2.45895e-07,0.0014
0.01503,6.8487e-07,0.0008
0.0193,8.7297e-07,0.0007
0.02187,5.11253e-07,0.001
0.02358,3.5841e-07,0.0011
0.02418,1.1458e-07,0.0021
0.02479,8.58505e-08,0.0024
0.02606,2.19128e-07,0.0015
0.027,1.7873e-07,0.0017
0.0285,2.8487e-07,0.0013
0.03183,5.8831e-07,0.0009
0.03431,4.24839e-07,0.0011
0.04087,1.11834e-06,0.0007
0.04631,1.10069e-06,0.0006
0.05248,9.04963e-07,0.0007
0.05656,5.63353e-07,0.0009
0.06738,1.65141e-06,0.0005
0.07202,6.08866e-07,0.0009
0.0795,8.63311e-07,0.0007
0.0825,2.15507e-07,0.0015
0.08652,3.01035e-07,0.0013
0.09804,8.64849e-07,0.0007
0.1111,7.25858e-07,0.0008
0.1168,3.51577e-07,0.0012
0.1228,3.60803e-07,0.0011
0.1291,3.83026e-07,0.0011
0.1357,4.17301e-07,0.0011
0.1426,4.00783e-07,0.0011
0.15,4.54289e-07,0.001
0.1576,4.28908e-07,0.0011
0.1657,3.94014e-07,0.0011
0.1742,4.21241e-07,0.0011
0.1832,3.53174e-07,0.0012
0.1925,5.22652e-07,0.001
0.2024,5.71277e-07,0.0009
0.2128,5.80221e-07,0.0009
0.2237,7.66055e-07,0.0008
0.2352,5.62135e-07,0.001
0.2472,8.56423e-07,0.0007
0.2732,1.2844e-06,0.0006
0.2872,7.48538e-07,0.0008
0.2945,2.85757e-07,0.0014
0.2972,1.63409e-07,0.0017
0.2985,8.36692e-08,0.0025
0.302,1.43391e-07,0.0019
0.3337,1.55897e-06,0.0006
0.3688,2.1697e-06,0.0005
0.3877,1.13745e-06,0.0006
0.4076,1.13068e-06,0.0007
0.4505,2.39745e-06,0.0004
0.4979,2.53343e-06,0.0004
0.5234,1.32216e-06,0.0006
0.5502,1.36815e-06,0.0006
0.5784,1.38305e-06,0.0006
0.6081,1.38934e-06,0.0006
0.6393,1.38279e-06,0.0006
0.6721,1.34654e-06,0.0006
0.7065,1.30873e-06,0.0006
0.7427,1.25637e-06,0.0006
0.7808,1.18598e-06,0.0006
0.8209,1.08909e-06,0.0007
0.8629,9.7731e-07,0.0007
0.9072,8.66611e-07,0.0007
0.9617,8.58553e-07,0.0007
1.003,5.27436e-07,0.0009
1.108,1.00289e-06,0.0007
1.165,3.06712e-07,0.0013
1.225,2.20241e-07,0.0015
1.287,1.81648e-07,0.0017
1.353,1.59405e-07,0.0022
1.423,1.41591e-07,0.0018
1.496,1.28032e-07,0.002
1.572,1.15193e-07,0.0021
1.653,1.06269e-07,0.0021
1.738,9.70518e-08,0.0022
1.827,8.85388e-08,0.0023
1.921,8.1393e-08,0.0024
2.019,7.34766e-08,0.0024
2.122,6.66467e-08,0.003
2.231,5.4948e-08,0.0028
2.307,3.13832e-08,0.0038
2.346,1.43041e-08,0.0055
2.365,6.67319e-09,0.0079
2.385,6.61968e-09,0.0078
2.466,2.4861e-08,0.0041
2.592,3.25854e-08,0.0037
2.725,2.89578e-08,0.0037
2.865,2.45423e-08,0.004
3.012,2.14683e-08,0.0042
3.166,1.88449e-08,0.0045
3.329,1.64927e-08,0.0047
3.679,2.77419e-08,0.0037
4.066,2.18857e-08,0.004
4.493,1.76321e-08,0.0046
4.724,7.8164e-09,0.0065
4.966,7.62543e-09,0.0067
5.22,7.66343e-09,0.0066
5.488,7.78512e-09,0.0065
5.77,8.20609e-09,0.0063
6.065,8.56062e-09,0.006
6.376,9.04325e-09,0.0061
6.592,6.27878e-09,0.007
6.703,3.17367e-09,0.0103
7.047,1.00276e-08,0.0055
7.408,1.08831e-08,0.0053
7.788,1.16565e-08,0.0051
8.187,1.24909e-08,0.0049
8.607,1.32754e-08,0.0047
9.048,1.41554e-08,0.0045
9.512,1.46639e-08,0.0045
10.0,1.75201e-08,0.004
10.51,3.09359e-08,0.003
11.05,3.30093e-08,0.0028
11.62,3.48959e-08,0.0027
12.21,3.56165e-08,0.0027
12.52,1.90648e-08,0.0036
12.84,1.96617e-08,0.0036
13.5,4.08952e-08,0.0025
13.84,2.08976e-08,0.0034
14.19,6.46426e-09,0.0057
14.55,0.0,0.0
14.92,0.0,0.0
15.68,0.0,0.0
16.49,0.0,0.0
16.9,0.0,0.0
17.33,0.0,0.0
19.64,0.0,0.0
