Energy,Value,Error
1e-07,1.3813879639068605e-13,0.3718
4.14e-07,3.5635355882254944e-11,0.0464
5.316e-07,1.5954502021161878e-10,0.0567
6.826e-07,2.476900539996719e-10,0.047
8.764e-07,3.9726454031261233e-10,0.0411
1.125e-06,5.519756914838303e-10,0.0302
1.445e-06,8.337158810269406e-10,0.0263
1.855e-06,1.0883779097504207e-09,0.0216
2.382e-06,1.5872818782148034e-09,0.0194
3.059e-06,2.137937810811715e-09,0.0174
3.928e-06,2.914130633913339e-09,0.0167
5.043e-06,3.7991921427902275e-09,0.0152
6.476e-06,4.8256332124096094e-09,0.0138
8.315e-06,6.536616142692118e-09,0.0126
1.068e-05,8.535197602525093e-09,0.0109
1.371e-05,1.0307237566820307e-08,0.01
1.76e-05,1.3507402652139412e-08,0.0096
2.26e-05,1.6903191462660107e-08,0.0083
2.902e-05,2.0822416445112617e-08,0.0076
3.727e-05,2.550360353163204e-08,0.0072
4.785e-05,3.097789145396302e-08,0.0063
6.144e-05,3.867591153207911e-08,0.0057
7.889e-05,4.663883345394841e-08,0.0053
0.0001013,5.5618095534103166e-08,0.0048
0.0001301,6.704701009737065e-08,0.005
0.000167,7.931821914849391e-08,0.0043
0.0002145,9.351262773648894e-08,0.004
0.0002754,1.098526167123774e-07,0.0035
0.0003536,1.282266796532803e-07,0.0035
0.000454,1.4862910053723763e-07,0.0032
0.0005829,1.7052882854328912e-07,0.0029
0.0007485,1.9499866442643194e-07,0.0028
0.0009611,2.214695703224044e-07,0.0025
0.001234,2.4946172331715615e-07,0.0024
0.001585,2.824713026462578e-07,0.0022
0.002035,3.17327246096059e-07,0.0021
0.002249,3.4294279469260867e-07,0.0031
0.002485,3.6188486335496855e-07,0.0031
0.002613,3.7227090095133e-07,0.0043
0.002747,3.782851610247247e-07,0.0043
0.003035,3.90795502605895e-07,0.0029
0.003355,4.102170600650543e-07,0.0029
0.003707,4.267686440596576e-07,0.0028
0.004307,4.482935001609657e-07,0.0022
0.005531,4.88259915253134e-07,0.0016
0.007102,5.296474675662464e-07,0.0015
0.009119,6.378135486271589e-07,0.0013
0.01059,4.575586434076054e-06,0.0005
0.01171,9.904775762690626e-07,0.0014
0.01503,6.900141501672742e-07,0.0014
0.0193,1.4486623299651255e-06,0.0009
0.02187,1.6671847717849876e-06,0.0011
0.02358,1.997434737110607e-06,0.0013
0.02418,2.0457755454447394e-06,0.0021
0.02479,2.1540869030689187e-06,0.0021
0.02606,2.218460387208047e-06,0.0014
0.027,2.3155980951548693e-06,0.0017
0.0285,2.4253696957067808e-06,0.0013
0.03183,2.8981996617441464e-06,0.0008
0.03431,5.743018709710694e-06,0.0007
0.04087,1.3894877522428138e-05,0.0003
0.04631,8.917617857322858e-06,0.0004
0.05248,4.164215317488572e-07,0.003
0.05656,2.1538568856249553e-05,0.0004
0.06738,9.89287306925215e-06,0.0003
0.07202,4.959215017418134e-07,0.0035
0.0795,1.6188329007182022e-06,0.0015
0.0825,2.94117871924459e-06,0.0018
0.08652,1.0126487244510038e-05,0.0007
0.09804,1.3393604545783624e-05,0.0003
0.1111,2.7089090896754014e-07,0.004
0.1168,1.0930083044799234e-06,0.0027
0.1228,1.7595779178270615e-06,0.002
0.1291,3.1824925463316073e-06,0.0014
0.1357,3.746785779071734e-06,0.0014
0.1426,9.192542715866594e-06,0.0008
0.15,1.6446266555824784e-05,0.0005
0.1576,3.7075656564667455e-05,0.0003
0.1657,6.771976959855432e-05,0.0002
0.1742,1.4184887842397165e-05,0.0006
0.1832,5.980598733363758e-07,0.0051
0.1925,2.54599862699682e-07,0.0075
0.2024,8.865262566003825e-07,0.0033
0.2128,1.6112796603876049e-06,0.0023
0.2237,2.52454746868141e-06,0.0017
0.2352,2.960661701296863e-06,0.0015
0.2472,3.963967366501875e-06,0.0014
0.2732,7.634601224194946e-06,0.0006
0.2872,9.861968286629946e-06,0.0008
0.2945,2.2956461797593287e-05,0.0006
0.2972,8.776493695359595e-06,0.002
0.2985,1.2626712093659816e-05,0.0022
0.302,1.658201922616449e-05,0.0011
0.3337,1.6026089227769855e-05,0.0004
0.3688,6.299737358513223e-06,0.0007
0.3877,2.5749462964616134e-05,0.0004
0.4076,2.0903633154245375e-05,0.0005
0.4505,1.374283598329747e-05,0.0004
0.4979,9.021235362022974e-06,0.0006
0.5234,2.1751371105759084e-05,0.0005
0.5502,1.6303074106979365e-05,0.0006
0.5784,1.758693030262484e-05,0.0005
0.6081,1.2217937777330952e-05,0.0006
0.6393,8.127514348246222e-06,0.0008
0.6721,1.0000977108379082e-05,0.0007
0.7065,2.6119447683945582e-06,0.0016
0.7427,3.3030884069282933e-06,0.0013
0.7808,2.776149739298628e-06,0.0015
0.8209,5.813275504391179e-06,0.0009
0.8629,5.148232831178753e-06,0.0009
0.9072,1.932162061696385e-06,0.0017
0.9617,1.778791192545902e-06,0.0015
1.003,1.0001418313116882e-06,0.0026
1.108,1.22642302396626e-06,0.0015
1.165,1.597364711866756e-06,0.0017
1.225,1.0166974726963262e-06,0.0022
1.287,1.152204696971024e-06,0.002
1.353,1.004938559254263e-06,0.0022
1.423,6.541426893171331e-07,0.0028
1.496,6.379163748222255e-07,0.0031
1.572,7.262427806214097e-07,0.0026
1.653,6.056510239326626e-07,0.0029
1.738,6.152418488531151e-07,0.0028
1.827,5.75195352087889e-07,0.0029
1.921,5.152359490888867e-07,0.0031
2.019,4.167137665492983e-07,0.0035
2.122,4.153711890524834e-07,0.0034
2.231,3.8407993273576014e-07,0.0035
2.307,3.9858721695516357e-07,0.0042
2.346,3.692247994412417e-07,0.006
2.365,3.632248087327381e-07,0.0092
2.385,3.262648844136966e-07,0.0095
2.466,3.0795298069989354e-07,0.0048
2.592,3.018499595484593e-07,0.004
2.725,2.621273775022071e-07,0.0043
2.865,3.0200645790322845e-07,0.0039
3.012,2.3727335409071503e-07,0.0044
3.166,2.3661651370390237e-07,0.0043
3.329,2.090054498535048e-07,0.0046
3.679,1.8939868038980686e-07,0.0034
4.066,1.7711780974570733e-07,0.0034
4.493,1.6605295494855157e-07,0.0035
4.724,1.6735723759664e-07,0.0048
4.966,1.6836577127493676e-07,0.0048
5.22,1.6794655287206447e-07,0.005
5.488,1.765929718612541e-07,0.0045
5.77,1.7460139716011022e-07,0.0045
6.065,1.7781312166350417e-07,0.0047
6.376,1.7751948073057334e-07,0.0042
6.592,1.77722909698611e-07,0.005
6.703,1.784914083834972e-07,0.0071
7.047,1.783448443677362e-07,0.004
7.408,1.8112872597848697e-07,0.004
7.788,1.834118656725734e-07,0.004
8.187,1.8719406550200165e-07,0.0037
8.607,1.9688358250557218e-07,0.0036
9.048,2.186403095917397e-07,0.0034
9.512,2.4569279479776077e-07,0.0032
10.0,3.1715378579773385e-07,0.0028
10.51,4.940704957075246e-07,0.0022
11.05,5.225510045499406e-07,0.0021
11.62,5.498861191290567e-07,0.0021
12.21,5.808990698434853e-07,0.002
12.52,5.993559955463757e-07,0.0028
12.84,6.006355689407297e-07,0.0028
13.5,5.72852888862562e-07,0.002
13.84,5.058322712726511e-07,0.003
14.19,1.3447534440625055e-07,0.006
14.55,0.0,0.0
14.92,0.0,0.0
15.68,0.0,0.0
16.49,0.0,0.0
16.9,0.0,0.0
17.33,0.0,0.0
19.64,0.0,0.0
