Energy,Value,Error
1e-07,3.8262067679812993e-13,0.2919
4.14e-07,2.8394959952272383e-10,0.0325
5.316e-07,1.4038776298844393e-09,0.0482
6.826e-07,2.2740229115505136e-09,0.0292
8.764e-07,3.5007182508282218e-09,0.0228
1.125e-06,5.024914193387191e-09,0.0188
1.445e-06,7.1189487493728814e-09,0.016
1.855e-06,9.749359819491398e-09,0.0154
2.382e-06,1.2503650441902768e-08,0.0119
3.059e-06,1.6066834511363403e-08,0.0126
3.928e-06,1.986883618032811e-08,0.0105
5.043e-06,2.3545732898809972e-08,0.0091
6.476e-06,2.7797230658150084e-08,0.0093
8.315e-06,3.264331404488128e-08,0.0086
1.068e-05,3.736668809135205e-08,0.0085
1.371e-05,4.126923011854808e-08,0.0074
1.76e-05,4.640566051849188e-08,0.007
2.26e-05,5.036052559984477e-08,0.0062
2.902e-05,5.572812201012597e-08,0.006
3.727e-05,6.078492932573887e-08,0.0058
4.785e-05,6.5111427267395e-08,0.0055
6.144e-05,6.987080295377358e-08,0.0055
7.889e-05,7.548279628820499e-08,0.0056
0.0001013,8.029294365313191e-08,0.0054
0.0001301,8.744011098516194e-08,0.0052
0.000167,9.405366594036735e-08,0.005
0.0002145,1.0168869560840707e-07,0.0053
0.0002754,1.1049403518482908e-07,0.0044
0.0003536,1.214975116082479e-07,0.0043
0.000454,1.3438556175880297e-07,0.0039
0.0005829,1.5133016570986883e-07,0.0039
0.0007485,1.7295116415778494e-07,0.0035
0.0009611,2.0317610141616596e-07,0.0033
0.001234,2.4037025927481493e-07,0.0031
0.001585,3.256730027834067e-07,0.0025
0.002035,5.014536919905631e-07,0.0021
0.002249,5.919590596771156e-07,0.003
0.002485,6.556315833145153e-07,0.0028
0.002613,7.115790092952398e-07,0.0038
0.002747,7.428391837764807e-07,0.0035
0.003035,7.697557381751591e-07,0.0027
0.003355,3.5220349330128285e-07,0.0036
0.003707,8.304875396331061e-07,0.0025
0.004307,1.637622707272084e-06,0.0014
0.005531,3.246322544286997e-06,0.0008
0.007102,2.0271087257604872e-05,0.0002
0.009119,5.213299606209483e-07,0.0024
0.01059,2.6868269565605103e-06,0.0014
0.01171,6.333153153955491e-06,0.0011
0.01503,2.5566031655270804e-05,0.0002
0.0193,4.556043187703917e-07,0.003
0.02187,1.1197198046222326e-06,0.0028
0.02358,2.4357405102243892e-06,0.0023
0.02418,3.5873434588066585e-06,0.003
0.02479,2.166332783558714e-06,0.0041
0.02606,1.9341919407210114e-06,0.0032
0.027,3.754872157823469e-06,0.0027
0.0285,5.200433708150982e-06,0.0017
0.03183,1.3868221926834324e-06,0.0023
0.03431,2.7764576869432546e-07,0.0074
0.04087,9.444131698947328e-07,0.0026
0.04631,1.1234889298279983e-06,0.0028
0.05248,1.4832392626928483e-06,0.0024
0.05656,1.3836405803864963e-06,0.0032
0.06738,8.516493705169873e-07,0.0026
0.07202,2.113817687826538e-07,0.008
0.0795,1.8276917134676192e-07,0.0092
0.0825,2.520353534447557e-07,0.0113
0.08652,2.8703809962131163e-07,0.0095
0.09804,3.571897212300378e-07,0.0048
0.1111,4.0246087294523017e-07,0.0047
0.1168,4.4353082489208406e-07,0.0069
0.1228,5.575943324522461e-07,0.0063
0.1291,7.423104250423201e-07,0.0052
0.1357,8.294164924432606e-07,0.0054
0.1426,4.425474534472034e-07,0.0069
0.15,2.7089377648300534e-07,0.0097
0.1576,4.787669369534538e-07,0.0069
0.1657,2.853543006074444e-07,0.0089
0.1742,3.1992314273414594e-07,0.009
0.1832,6.340067121627241e-07,0.0059
0.1925,6.845875107580637e-07,0.0055
0.2024,4.0975052113640625e-07,0.0075
0.2128,3.0851688419430596e-07,0.0094
0.2237,3.712641638952944e-07,0.0082
0.2352,5.285800180219119e-07,0.0066
0.2472,3.2710422461521155e-07,0.0082
0.2732,5.760571201716499e-07,0.0045
0.2872,3.6384603712825015e-07,0.008
0.2945,3.9187629405723803e-07,0.0125
0.2972,4.271967647341262e-07,0.017
0.2985,4.5674308530871955e-07,0.0287
0.302,4.6682084017612777e-07,0.0137
0.3337,5.439112321058262e-07,0.0045
0.3688,3.8068291481142466e-07,0.0054
0.3877,5.343000059040385e-07,0.0063
0.4076,9.297933309967563e-07,0.0047
0.4505,6.016751434551245e-07,0.0043
0.4979,4.788048444456456e-07,0.005
0.5234,5.104297460273321e-07,0.0068
0.5502,4.4297626417628425e-07,0.0068
0.5784,7.769533855353388e-07,0.005
0.6081,1.6858540194789596e-06,0.0029
0.6393,3.836433961882414e-07,0.0076
0.6721,5.103659819010123e-07,0.0063
0.7065,2.6996119385190773e-07,0.0081
0.7427,6.746944110552984e-07,0.0046
0.7808,5.082131868553888e-07,0.0055
0.8209,3.639671702354649e-07,0.0064
0.8629,2.0077154086182383e-07,0.0091
0.9072,2.274363199282525e-07,0.0084
0.9617,1.653166442887513e-07,0.0096
1.003,1.30438051390275e-07,0.0127
1.108,1.397925785007863e-07,0.0077
1.165,9.973926044118719e-08,0.014
1.225,8.226821969141442e-08,0.0139
1.287,5.379975791646822e-08,0.0175
1.353,3.733321932801283e-08,0.0224
1.423,5.293304506622371e-08,0.0177
1.496,3.758188453109073e-08,0.0236
1.572,4.056216503446528e-08,0.0218
1.653,4.4212616301899394e-08,0.0187
1.738,3.79405322419011e-08,0.0216
1.827,3.52631390614013e-08,0.0216
1.921,3.8198461965589774e-08,0.0198
2.019,3.5933025784138785e-08,0.0208
2.122,2.7974724527776616e-08,0.0244
2.231,2.6486460720650094e-08,0.0242
2.307,2.4840868607460185e-08,0.0332
2.346,2.1387192604315044e-08,0.0467
2.365,2.0569354208657187e-08,0.0714
2.385,2.7667398997473043e-08,0.0554
2.466,2.1589734301413235e-08,0.0345
2.592,2.0369489222721803e-08,0.0276
2.725,1.985327356836009e-08,0.0264
2.865,1.8254120217193056e-08,0.0305
3.012,1.6209302344010904e-08,0.0327
3.166,1.65053996146053e-08,0.0275
3.329,1.5877458428853325e-08,0.0302
3.679,1.2355027892841357e-08,0.0229
4.066,1.0989940585855091e-08,0.0267
4.493,9.99250809168365e-09,0.0254
4.724,9.541945555018345e-09,0.0378
4.966,9.879122619671488e-09,0.0543
5.22,8.104731299238025e-09,0.0396
5.488,8.029922045897759e-09,0.0454
5.77,7.766893979828174e-09,0.0426
6.065,6.940772416344338e-09,0.0422
6.376,7.267169934234678e-09,0.047
6.592,7.3121049535244825e-09,0.0547
6.703,7.480359742992041e-09,0.0616
7.047,7.391460562681975e-09,0.0385
7.408,7.79887259647981e-09,0.0422
7.788,7.673039834320175e-09,0.0353
8.187,8.16801197916978e-09,0.036
8.607,8.189005796903252e-09,0.0349
9.048,7.939975376536857e-09,0.0348
9.512,7.942124769917297e-09,0.035
10.0,1.1758885105725112e-08,0.0293
10.51,1.710346243175789e-08,0.0229
11.05,1.914602610784936e-08,0.0215
11.62,2.3506419798663485e-08,0.0189
12.21,2.8473453234204473e-08,0.0174
12.52,3.042516115782003e-08,0.0263
12.84,3.435713273710409e-08,0.0217
13.5,3.515554202352044e-08,0.0157
13.84,3.2610596490293676e-08,0.0219
14.19,6.558038448644123e-09,0.0489
14.55,0.0,0.0
14.92,0.0,0.0
15.68,0.0,0.0
16.49,0.0,0.0
16.9,0.0,0.0
17.33,0.0,0.0
19.64,0.0,0.0
