Energy,Value,Error
1e-07,3.92788e-11,0.1009
4.14e-07,3.74912e-10,0.0454
5.316e-07,1.8242e-10,0.0748
6.826e-07,2.09575e-10,0.0614
8.764e-07,2.59813e-10,0.0579
1.125e-06,3.32003e-10,0.0512
1.445e-06,4.97213e-10,0.0969
1.855e-06,5.08231e-10,0.0424
2.382e-06,6.71713e-10,0.0407
3.059e-06,9.07577e-10,0.0682
3.928e-06,1.02452e-09,0.0343
5.043e-06,1.25291e-09,0.0305
6.476e-06,1.56135e-09,0.0277
8.315e-06,1.94125e-09,0.0226
1.068e-05,2.37174e-09,0.0211
1.371e-05,2.86153e-09,0.0187
1.76e-05,3.33638e-09,0.017
2.26e-05,4.10028e-09,0.0152
2.902e-05,4.79183e-09,0.0144
3.727e-05,6.01601e-09,0.0129
4.785e-05,8.1451e-09,0.0131
6.144e-05,1.29351e-08,0.0105
7.889e-05,1.5679e-08,0.0095
0.0001013,1.84558e-08,0.0097
0.0001301,2.1922e-08,0.0079
0.000167,2.58904e-08,0.0079
0.0002145,3.00026e-08,0.007
0.0002754,3.49672e-08,0.0061
0.0003536,4.08324e-08,0.006
0.000454,4.55725e-08,0.0054
0.0005829,5.08676e-08,0.005
0.0007485,5.62423e-08,0.0051
0.0009611,6.0637e-08,0.0044
0.001234,6.43431e-08,0.0043
0.001585,6.76685e-08,0.0039
0.002035,7.23e-08,0.0032
0.002249,3.15478e-08,0.0048
0.002485,3.43571e-08,0.0044
0.002613,1.91635e-08,0.0057
0.002747,2.34688e-08,0.0052
0.003035,8.07265e-08,0.0031
0.003355,5.99435e-08,0.0046
0.003707,9.13387e-08,0.0036
0.004307,1.53739e-07,0.0028
0.005531,2.81613e-07,0.002
0.007102,3.10488e-07,0.0018
0.009119,3.44473e-07,0.0018
0.01059,2.48284e-07,0.002
0.01171,2.04078e-07,0.0021
0.01503,7.11988e-07,0.0012
0.0193,1.0038e-06,0.0009
0.02187,4.09559e-07,0.0015
0.02358,3.38538e-07,0.0019
0.02418,1.65922e-07,0.0024
0.02479,1.06527e-07,0.0032
0.02606,2.54452e-07,0.002
0.027,1.95132e-07,0.0023
0.0285,3.89891e-07,0.0017
0.03183,8.99783e-07,0.0011
0.03431,5.70643e-07,0.0014
0.04087,2.93023e-06,0.0006
0.04631,1.70942e-06,0.0007
0.05248,2.24709e-06,0.0007
0.05656,5.84509e-07,0.0014
0.06738,2.23602e-06,0.0007
0.07202,7.46252e-07,0.0012
0.0795,8.9019e-07,0.0012
0.0825,5.85921e-07,0.0015
0.08652,9.4877e-07,0.0011
0.09804,1.88078e-06,0.0008
0.1111,1.27259e-06,0.0011
0.1168,5.34617e-07,0.0017
0.1228,5.40035e-07,0.0016
0.1291,5.43955e-07,0.0016
0.1357,5.47536e-07,0.0017
0.1426,5.46044e-07,0.0017
0.15,5.55318e-07,0.0016
0.1576,5.42969e-07,0.0017
0.1657,5.43499e-07,0.0017
0.1742,5.34879e-07,0.0018
0.1832,5.2495e-07,0.0017
0.1925,5.02582e-07,0.0018
0.2024,4.88398e-07,0.0018
0.2128,4.62391e-07,0.0019
0.2237,4.35174e-07,0.0019
0.2352,4.1352e-07,0.002
0.2472,3.92447e-07,0.002
0.2732,7.42874e-07,0.0015
0.2872,3.54693e-07,0.0021
0.2945,1.76501e-07,0.003
0.2972,6.40022e-08,0.005
0.2985,3.08975e-08,0.0073
0.302,8.16775e-08,0.0046
0.3337,6.99118e-07,0.0015
0.3688,7.00642e-07,0.0015
0.3877,3.47378e-07,0.0021
0.4076,3.4793e-07,0.0022
0.4505,6.84491e-07,0.0016
0.4979,6.68393e-07,0.0015
0.5234,3.27655e-07,0.0022
0.5502,3.26178e-07,0.0021
0.5784,3.23404e-07,0.0021
0.6081,3.19346e-07,0.0022
0.6393,3.09833e-07,0.0022
0.6721,2.915e-07,0.0022
0.7065,2.75675e-07,0.0023
0.7427,2.56758e-07,0.0023
0.7808,2.41749e-07,0.0024
0.8209,2.32801e-07,0.0027
0.8629,2.22366e-07,0.0025
0.9072,2.11272e-07,0.0026
0.9617,2.22353e-07,0.0025
1.003,1.39883e-07,0.0033
1.108,2.91846e-07,0.0023
1.165,1.27508e-07,0.0033
1.225,1.09705e-07,0.0034
1.287,9.57724e-08,0.0037
1.353,8.47903e-08,0.0039
1.423,7.40324e-08,0.0042
1.496,6.47533e-08,0.0046
1.572,5.51305e-08,0.0051
1.653,4.72177e-08,0.0054
1.738,4.05693e-08,0.0056
1.827,3.32675e-08,0.0061
1.921,2.91287e-08,0.0066
2.019,2.47723e-08,0.0071
2.122,2.16915e-08,0.0077
2.231,1.85992e-08,0.0083
2.307,1.11409e-08,0.011
2.346,5.22836e-09,0.0169
2.365,2.33597e-09,0.0227
2.385,2.44976e-09,0.023
2.466,9.16549e-09,0.0119
2.592,1.2591e-08,0.0109
2.725,1.11132e-08,0.0106
2.865,9.83372e-09,0.0114
3.012,8.9105e-09,0.0117
3.166,7.93576e-09,0.0127
3.329,7.1626e-09,0.0134
3.679,1.286e-08,0.0095
4.066,1.12988e-08,0.0115
4.493,9.84608e-09,0.0116
4.724,4.57104e-09,0.0152
4.966,4.33916e-09,0.0149
5.22,4.2766e-09,0.0155
5.488,4.25428e-09,0.016
5.77,4.38492e-09,0.0152
6.065,4.56137e-09,0.0149
6.376,4.91207e-09,0.014
6.592,3.39768e-09,0.0168
6.703,1.85672e-09,0.0242
7.047,5.53547e-09,0.0127
7.408,5.68744e-09,0.013
7.788,5.89959e-09,0.0126
8.187,6.02646e-09,0.0124
8.607,6.0425e-09,0.0126
9.048,6.23353e-09,0.0124
9.512,6.69788e-09,0.012
10.0,7.52234e-09,0.0111
10.51,1.31966e-08,0.0082
11.05,1.4323e-08,0.0077
11.62,1.50635e-08,0.0073
12.21,1.61335e-08,0.0074
12.52,8.59406e-09,0.0103
12.84,8.69634e-09,0.0094
13.5,1.79184e-08,0.0066
13.84,9.14755e-09,0.0091
14.19,2.88217e-09,0.017
14.55,0.0,0.0
14.92,0.0,0.0
15.68,0.0,0.0
16.49,0.0,0.0
16.9,0.0,0.0
17.33,0.0,0.0
19.64,0.0,0.0
