Energy,Value,Error
1e-07,7.669510262066857e-14,1.0
4.14e-07,2.3724853898040742e-11,0.0917
5.316e-07,1.75314221024557e-10,0.1026
6.826e-07,4.484722308845948e-10,0.0875
8.764e-07,6.13724173655875e-10,0.0484
1.125e-06,1.0496936826120637e-09,0.0411
1.445e-06,1.784638790047664e-09,0.0276
1.855e-06,2.809051938841299e-09,0.0238
2.382e-06,4.293322161994479e-09,0.0193
3.059e-06,6.155405990230827e-09,0.0168
3.928e-06,8.885935599606249e-09,0.0155
5.043e-06,1.2248892549943782e-08,0.0121
6.476e-06,1.6572045716690785e-08,0.0096
8.315e-06,2.2485210605271546e-08,0.0082
1.068e-05,2.8921178658124154e-08,0.0077
1.371e-05,3.732680964609453e-08,0.0069
1.76e-05,4.68965054036662e-08,0.0062
2.26e-05,5.8590446556583246e-08,0.0057
2.902e-05,7.205541390722215e-08,0.0053
3.727e-05,8.759950590341957e-08,0.005
4.785e-05,1.0471045395136939e-07,0.0048
6.144e-05,1.2451179494482305e-07,0.0044
7.889e-05,1.4312898532220904e-07,0.004
0.0001013,1.6757499454153455e-07,0.0037
0.0001301,1.9151618366815445e-07,0.0035
0.000167,2.1640036693120355e-07,0.0034
0.0002145,2.3853256548931113e-07,0.0032
0.0002754,2.572508217635487e-07,0.0031
0.0003536,2.737105806209302e-07,0.0029
0.000454,2.8496800245493043e-07,0.0028
0.0005829,2.888158151729662e-07,0.003
0.0007485,3.2472823394535983e-07,0.0028
0.0009611,3.3056240315256667e-07,0.0026
0.001234,3.204902115029028e-07,0.0026
0.001585,3.215599248076329e-07,0.0028
0.002035,2.801340665538325e-07,0.0029
0.002249,2.1965828634825024e-07,0.0054
0.002485,1.6943091059173705e-07,0.0064
0.002613,1.1635272476080308e-07,0.0116
0.002747,7.749384939113238e-08,0.0123
0.003035,2.5670894800198955e-08,0.0185
0.003355,7.235529700140887e-08,0.0106
0.003707,6.738911747164502e-06,0.0008
0.004307,2.7978582045557082e-05,0.0003
0.005531,1.80459508566598e-05,0.0004
0.007102,7.5778034661893536e-06,0.0006
0.009119,2.5663391771787625e-06,0.0011
0.01059,3.6052354500952788e-06,0.0012
0.01171,1.3480546262420294e-05,0.0007
0.01503,5.6754866751715176e-06,0.0008
0.0193,1.2401577790504988e-05,0.0005
0.02187,6.4465741733771665e-06,0.001
0.02358,3.7427144755540954e-06,0.0018
0.02418,2.34696609888164e-06,0.0041
0.02479,2.1050150791199724e-06,0.0044
0.02606,1.2167896045297847e-06,0.0042
0.027,3.5836586793257426e-07,0.0135
0.0285,5.824305237101631e-06,0.0016
0.03183,6.7765346027983304e-06,0.001
0.03431,2.825479636684638e-06,0.0021
0.04087,1.4993246374230255e-06,0.002
0.04631,2.1326627630159006e-06,0.0034
0.05248,2.211486834276699e-06,0.0019
0.05656,8.531268194889315e-07,0.0044
0.06738,4.769294745220591e-07,0.0038
0.07202,6.694854682300235e-07,0.0053
0.0795,6.003137429790385e-07,0.0043
0.0825,3.15213259975473e-07,0.0102
0.08652,3.0042683534853125e-07,0.009
0.09804,3.216849091797199e-07,0.0058
0.1111,1.5650376558092556e-07,0.0079
0.1168,3.7160739351371886e-07,0.0075
0.1228,2.4054404026847514e-07,0.0096
0.1291,9.754152467874612e-08,0.0161
0.1357,1.8722917903598448e-07,0.0142
0.1426,1.347389545903877e-07,0.0136
0.15,5.8380030173759975e-08,0.0192
0.1576,9.332910245700683e-08,0.0224
0.1657,8.550991905788821e-06,0.0012
0.1742,9.040574401742912e-06,0.0012
0.1832,9.736356533734933e-06,0.0011
0.1925,6.746597478524886e-06,0.0014
0.2024,3.494272300336292e-06,0.0023
0.2128,5.341608182490892e-06,0.0018
0.2237,6.582973377008737e-06,0.0016
0.2352,8.57372871306367e-06,0.0013
0.2472,1.263534819524935e-05,0.001
0.2732,3.955586758861956e-06,0.0015
0.2872,2.3548711184232058e-06,0.0028
0.2945,4.157343036802248e-06,0.0028
0.2972,5.261885833939851e-06,0.004
0.2985,5.908463981900427e-06,0.0061
0.302,6.5106416381528865e-06,0.0031
0.3337,5.5305711830345134e-06,0.0012
0.3688,5.679802407374141e-06,0.0012
0.3877,1.2447778097994739e-05,0.0011
0.4076,1.1794853830347461e-05,0.0011
0.4505,9.141028962491155e-06,0.0009
0.4979,4.040016458593234e-06,0.0014
0.5234,8.437648382483011e-06,0.0013
0.5502,5.132644320951438e-06,0.0018
0.5784,8.984506963448271e-06,0.0012
0.6081,6.606246187547996e-06,0.0015
0.6393,6.106588207141049e-06,0.0016
0.6721,8.719790665618719e-06,0.0013
0.7065,2.41140812009784e-06,0.0028
0.7427,2.465909231110786e-06,0.0027
0.7808,2.425258100903097e-06,0.0027
0.8209,4.65797630096442e-06,0.0018
0.8629,5.153744128217783e-06,0.0016
0.9072,2.961741657591644e-06,0.0023
0.9617,3.7044637014998233e-06,0.0018
1.003,2.0013871571845112e-06,0.0031
1.108,2.3279679320888742e-06,0.0018
1.165,2.921129560130522e-06,0.0022
1.225,1.8327328831646617e-06,0.0028
1.287,1.6904898822293919e-06,0.003
1.353,1.5259939653190304e-06,0.0031
1.423,9.504872547538002e-07,0.0041
1.496,9.137143525246846e-07,0.0041
1.572,1.0099464703311792e-06,0.0038
1.653,7.806699947754506e-07,0.0055
1.738,7.101340623626836e-07,0.0045
1.827,6.345022231432584e-07,0.0048
1.921,5.168026034639233e-07,0.0054
2.019,4.044118452547788e-07,0.0061
2.122,4.3969555097870676e-07,0.0058
2.231,3.871583377187817e-07,0.0062
2.307,3.6639132622154934e-07,0.0076
2.346,3.319032446121069e-07,0.0109
2.365,3.5940643996246216e-07,0.0148
2.385,3.1715800073149475e-07,0.0234
2.466,2.8977420045447703e-07,0.0084
2.592,2.77285606941191e-07,0.0071
2.725,2.4206488565800587e-07,0.0078
2.865,2.8899645762159044e-07,0.0071
3.012,2.432610477688521e-07,0.0073
3.166,2.4261475074909656e-07,0.0083
3.329,2.2165210515785832e-07,0.0079
3.679,2.2417145385400075e-07,0.0054
4.066,2.1003964049634747e-07,0.0057
4.493,2.0849097992572386e-07,0.0054
4.724,2.055898045503662e-07,0.0079
4.966,2.0807950432587843e-07,0.0076
5.22,1.9937527534669979e-07,0.0075
5.488,2.0329166871962784e-07,0.0076
5.77,2.0330608589926012e-07,0.0075
6.065,2.0561158864347112e-07,0.0074
6.376,2.0228411130763444e-07,0.0075
6.592,2.0742888948755192e-07,0.0095
6.703,2.0423160712445342e-07,0.0123
7.047,2.037112978316848e-07,0.0071
7.408,2.0488404146550076e-07,0.0076
7.788,2.043056079355752e-07,0.007
8.187,2.050319075030584e-07,0.0068
8.607,2.15006326745647e-07,0.0065
9.048,2.307660911552761e-07,0.0062
9.512,2.4259344073876826e-07,0.006
10.0,3.1567070333948956e-07,0.0053
10.51,4.900537768203796e-07,0.0041
11.05,5.246067597002813e-07,0.0038
11.62,5.628251774174667e-07,0.0037
12.21,5.988547377259278e-07,0.0036
12.52,6.135351156970858e-07,0.005
12.84,6.156566091408399e-07,0.005
13.5,6.260445616163629e-07,0.0034
13.84,5.504062349786676e-07,0.005
14.19,1.491370753368666e-07,0.0098
14.55,0.0,0.0
14.92,0.0,0.0
15.68,0.0,0.0
16.49,0.0,0.0
16.9,0.0,0.0
17.33,0.0,0.0
19.64,0.0,0.0
