Energy,Value,Error
1e-07,1.19717e-12,0.4255
4.14e-07,3.68819e-11,0.1301
5.316e-07,2.31947e-11,0.1438
6.826e-07,3.74301e-11,0.1167
8.764e-07,5.506e-11,0.1494
1.125e-06,7.46968e-11,0.094
1.445e-06,1.0225e-10,0.0844
1.855e-06,1.40743e-10,0.0958
2.382e-06,1.99545e-10,0.0663
3.059e-06,2.41045e-10,0.0587
3.928e-06,3.12988e-10,0.0513
5.043e-06,4.27271e-10,0.0454
6.476e-06,5.35178e-10,0.0395
8.315e-06,6.78292e-10,0.0386
1.068e-05,8.94146e-10,0.0343
1.371e-05,1.18196e-09,0.0275
1.76e-05,1.49114e-09,0.0276
2.26e-05,1.97382e-09,0.0225
2.902e-05,2.54755e-09,0.0203
3.727e-05,3.10404e-09,0.0178
4.785e-05,4.02232e-09,0.0155
6.144e-05,5.34358e-09,0.0139
7.889e-05,6.75969e-09,0.0125
0.0001013,8.59041e-09,0.0116
0.0001301,1.10937e-08,0.0099
0.000167,1.38739e-08,0.0096
0.0002145,1.77623e-08,0.0079
0.0002754,2.24019e-08,0.0071
0.0003536,2.80876e-08,0.0061
0.000454,3.49716e-08,0.0057
0.0005829,4.38519e-08,0.0049
0.0007485,5.55796e-08,0.0044
0.0009611,6.78684e-08,0.0039
0.001234,8.44246e-08,0.0035
0.001585,1.05133e-07,0.0033
0.002035,1.29155e-07,0.0029
0.002249,5.931e-08,0.0041
0.002485,6.45251e-08,0.0042
0.002613,3.44441e-08,0.0054
0.002747,3.58291e-08,0.0054
0.003035,7.5277e-08,0.0036
0.003355,8.22448e-08,0.0035
0.003707,8.84537e-08,0.0034
0.004307,1.46007e-07,0.0026
0.005531,2.83284e-07,0.0019
0.007102,2.78318e-07,0.002
0.009119,4.35608e-07,0.0015
0.01059,3.302e-07,0.0018
0.01171,2.64705e-07,0.002
0.01503,9.01949e-07,0.001
0.0193,1.69086e-06,0.0007
0.02187,1.63581e-06,0.0007
0.02358,1.58293e-06,0.0007
0.02418,6.9406e-07,0.0011
0.02479,7.99513e-07,0.0011
0.02606,2.05008e-06,0.0006
0.027,1.91959e-06,0.0007
0.0285,3.52443e-06,0.0005
0.03183,3.93426e-06,0.0004
0.03431,1.20053e-07,0.0031
0.04087,1.54306e-07,0.0032
0.04631,4.91658e-07,0.0016
0.05248,9.30338e-07,0.0011
0.05656,7.77404e-07,0.0012
0.06738,2.39741e-06,0.0007
0.07202,9.53122e-07,0.001
0.0795,7.91224e-07,0.0011
0.0825,7.87858e-08,0.0038
0.08652,3.5695e-08,0.0077
0.09804,1.07181e-07,0.0039
0.1111,5.04233e-07,0.0016
0.1168,3.1293e-07,0.002
0.1228,1.5464e-07,0.0031
0.1291,7.3429e-07,0.0011
0.1357,4.53454e-07,0.0014
0.1426,7.25937e-08,0.0041
0.15,2.98839e-08,0.0077
0.1576,3.00905e-08,0.0071
0.1657,3.86651e-08,0.0064
0.1742,9.2731e-08,0.0038
0.1832,1.46599e-07,0.003
0.1925,2.00178e-07,0.0024
0.2024,1.64039e-07,0.0029
0.2128,7.3517e-08,0.0045
0.2237,1.19643e-07,0.0034
0.2352,2.02369e-07,0.0026
0.2472,3.09773e-07,0.002
0.2732,1.24034e-06,0.0009
0.2872,2.17769e-07,0.0022
0.2945,5.30953e-08,0.0051
0.2972,2.39583e-08,0.0076
0.2985,1.26307e-08,0.0678
0.302,3.32502e-08,0.0065
0.3337,3.68692e-07,0.0018
0.3688,6.08921e-07,0.0013
0.3877,4.90629e-07,0.0013
0.4076,2.35644e-07,0.0021
0.4505,2.42603e-07,0.0023
0.4979,3.58078e-07,0.0018
0.5234,1.99935e-07,0.0023
0.5502,1.38397e-07,0.0029
0.5784,1.55401e-07,0.0028
0.6081,2.21194e-07,0.0022
0.6393,2.02115e-07,0.0023
0.6721,1.48687e-07,0.0028
0.7065,2.38354e-07,0.0021
0.7427,2.03526e-07,0.0023
0.7808,1.55832e-07,0.0027
0.8209,1.03053e-07,0.0036
0.8629,1.30673e-07,0.0032
0.9072,1.79602e-07,0.0025
0.9617,2.71547e-07,0.002
1.003,1.97746e-07,0.0023
1.108,4.13864e-07,0.0016
1.165,1.2706e-07,0.0029
1.225,1.38439e-07,0.0029
1.287,1.68947e-07,0.0026
1.353,2.05907e-07,0.0022
1.423,1.73762e-07,0.0024
1.496,1.58308e-07,0.0026
1.572,1.56218e-07,0.0027
1.653,1.80538e-07,0.0024
1.738,1.62738e-07,0.0025
1.827,1.77263e-07,0.0024
1.921,1.7661e-07,0.0023
2.019,1.25603e-07,0.0028
2.122,1.1113e-07,0.003
2.231,1.00189e-07,0.0031
2.307,6.38036e-08,0.0039
2.346,3.33448e-08,0.0051
2.365,1.56399e-08,0.0075
2.385,2.27852e-08,0.006
2.466,7.74335e-08,0.0033
2.592,6.13849e-08,0.004
2.725,7.51564e-08,0.0035
2.865,7.7535e-08,0.0034
3.012,7.36474e-08,0.0035
3.166,7.15621e-08,0.0035
3.329,6.84845e-08,0.0035
3.679,1.1563e-07,0.003
4.066,1.07641e-07,0.0029
4.493,1.07263e-07,0.0027
4.724,4.84062e-08,0.0039
4.966,4.43186e-08,0.0041
5.22,3.94799e-08,0.0043
5.488,4.17698e-08,0.0042
5.77,4.09198e-08,0.0041
6.065,3.48094e-08,0.0045
6.376,3.69583e-08,0.0042
6.592,2.16623e-08,0.0055
6.703,1.27088e-08,0.007
7.047,3.48839e-08,0.0044
7.408,3.91353e-08,0.0039
7.788,3.53485e-08,0.0041
8.187,3.62997e-08,0.004
8.607,3.75061e-08,0.0039
9.048,3.95708e-08,0.0039
9.512,4.22663e-08,0.0036
10.0,4.86208e-08,0.0034
10.51,6.73495e-08,0.0027
11.05,6.71145e-08,0.0027
11.62,6.60689e-08,0.0027
12.21,6.45677e-08,0.0028
12.52,3.2554e-08,0.0039
12.84,3.25325e-08,0.0039
13.5,6.00504e-08,0.0028
13.84,2.44302e-08,0.0042
14.19,6.98665e-09,0.008
14.55,0.0,0.0
14.92,0.0,0.0
15.68,0.0,0.0
16.49,0.0,0.0
16.9,0.0,0.0
17.33,0.0,0.0
19.64,0.0,0.0
