Energy,Value,Error
1e-07,2.1094551575004747e-09,0.0072
4.14e-07,1.6740177737983775e-08,0.0062
5.316e-07,2.1697999561272853e-08,0.0126
6.826e-07,2.4103692529755617e-08,0.0113
8.764e-07,2.739879217357824e-08,0.0123
1.125e-06,2.9094645625990885e-08,0.0108
1.445e-06,3.2804185825765e-08,0.0104
1.855e-06,3.649627197409074e-08,0.0103
2.382e-06,3.9371256292609945e-08,0.0099
3.059e-06,4.421069902267935e-08,0.0091
3.928e-06,4.847259352720138e-08,0.0088
5.043e-06,5.323031952109274e-08,0.0081
6.476e-06,5.8396999083507185e-08,0.0076
8.315e-06,6.467924623627056e-08,0.0081
1.068e-05,7.161070978406443e-08,0.0073
1.371e-05,7.647966590936218e-08,0.0066
1.76e-05,8.395489387145252e-08,0.0064
2.26e-05,9.214360114477303e-08,0.0064
2.902e-05,1.0033141667825635e-07,0.0059
3.727e-05,1.1006921861000032e-07,0.0056
4.785e-05,1.1906240485603304e-07,0.0053
6.144e-05,1.303888307093896e-07,0.0052
7.889e-05,1.3962249258624227e-07,0.0051
0.0001013,1.5057036665472453e-07,0.0047
0.0001301,1.6322793495591105e-07,0.0047
0.000167,1.7422173745459267e-07,0.0044
0.0002145,1.8652348955647588e-07,0.0041
0.0002754,1.981903052617762e-07,0.004
0.0003536,2.1284319717394088e-07,0.0039
0.000454,3.5553351599909257e-07,0.0031
0.0005829,3.806941869966631e-07,0.003
0.0007485,4.089811099878455e-07,0.0031
0.0009611,4.3380740575622403e-07,0.0027
0.001234,4.6865670932519685e-07,0.0026
0.001585,5.07159772082742e-07,0.0026
0.002035,5.889446947544988e-07,0.0023
0.002249,7.182408721254721e-07,0.0031
0.002485,8.303677949098168e-07,0.0031
0.002613,9.788113713730696e-07,0.0039
0.002747,1.0905347200305812e-06,0.0036
0.003035,1.6756932744152e-06,0.0021
0.003355,8.712749263306844e-06,0.0007
0.003707,8.586770502725213e-07,0.0033
0.004307,1.1099284294954887e-06,0.0022
0.005531,1.4006043532610742e-06,0.0016
0.007102,1.723174212782533e-06,0.0014
0.009119,1.997774139557322e-06,0.0013
0.01059,2.6268403342907987e-06,0.0015
0.01171,7.95938504531281e-06,0.0009
0.01503,8.982912061255286e-06,0.0005
0.0193,1.2588735199358502e-05,0.0004
0.02187,1.0988895941502529e-05,0.0007
0.02358,3.7169317830179907e-06,0.0018
0.02418,3.6795074497751015e-06,0.0032
0.02479,4.777900254423884e-06,0.0029
0.02606,1.0990643100934362e-05,0.0011
0.027,2.128270738921491e-06,0.004
0.0285,4.248267149735627e-06,0.002
0.03183,1.9933821363783195e-05,0.0005
0.03431,2.7854010605910165e-06,0.0023
0.04087,5.2654432152017965e-06,0.0009
0.04631,4.0319818856447834e-06,0.0014
0.05248,8.767274052763765e-06,0.0008
0.05656,6.52740487753384e-06,0.0013
0.06738,6.24589335632107e-06,0.0009
0.07202,5.7839239066837435e-06,0.0015
0.0795,5.38431299515518e-06,0.0012
0.0825,5.283430916974276e-06,0.002
0.08652,5.111869744868712e-06,0.0019
0.09804,4.658889581225121e-06,0.0012
0.1111,2.046441306788372e-06,0.002
0.1168,1.6279099690402571e-06,0.0035
0.1228,1.6160835303469496e-06,0.0036
0.1291,1.6123095163644035e-06,0.0036
0.1357,1.6085975913312839e-06,0.0036
0.1426,1.6104420588267566e-06,0.0039
0.15,1.6115007248996716e-06,0.0036
0.1576,1.6104499321230696e-06,0.0039
0.1657,1.6133124793782692e-06,0.0036
0.1742,1.611675649938179e-06,0.0036
0.1832,1.620180483165288e-06,0.0037
0.1925,1.597903327953946e-06,0.0035
0.2024,1.6201804679675771e-06,0.0036
0.2128,1.6169535387078137e-06,0.0036
0.2237,1.6303649226848015e-06,0.0038
0.2352,1.628482626292801e-06,0.0036
0.2472,1.6453098132568054e-06,0.0038
0.2732,1.646444592755054e-06,0.0025
0.2872,1.661952633011373e-06,0.0037
0.2945,1.6699491205616004e-06,0.005
0.2972,1.6783234863035238e-06,0.0086
0.2985,1.697249707553109e-06,0.0126
0.302,1.6617019401253085e-06,0.0072
0.3337,1.6738404386769908e-06,0.0026
0.3688,1.6952747713057693e-06,0.0026
0.3877,1.7079335916307562e-06,0.0037
0.4076,1.7273746585068498e-06,0.005
0.4505,1.7060654595769512e-06,0.0025
0.4979,1.712864700558087e-06,0.0026
0.5234,1.6907451017960608e-06,0.0036
0.5502,1.6626549071050518e-06,0.0036
0.5784,1.6337846157804476e-06,0.0036
0.6081,1.598251095871881e-06,0.0037
0.6393,1.5797124518925483e-06,0.0037
0.6721,1.5546702412724664e-06,0.0038
0.7065,1.5159949568664744e-06,0.0038
0.7427,1.4649684987299266e-06,0.0038
0.7808,1.4149284544174895e-06,0.004
0.8209,1.346109266471813e-06,0.004
0.8629,1.2729593079148426e-06,0.004
0.9072,1.1813090076003623e-06,0.0045
0.9617,1.095190564740063e-06,0.0044
1.003,9.939560783946393e-07,0.0049
1.108,8.419545122575289e-07,0.0036
1.165,6.707333049653784e-07,0.0056
1.225,5.577267132474864e-07,0.0063
1.287,4.350366230201909e-07,0.0067
1.353,3.4744758792938105e-07,0.0081
1.423,2.536250347774389e-07,0.009
1.496,1.7662944028203277e-07,0.0103
1.572,1.196670743766338e-07,0.013
1.653,8.563818461527139e-08,0.0155
1.738,6.943432896635797e-08,0.0166
1.827,5.99716654773555e-08,0.0178
1.921,5.1707367852118165e-08,0.02
2.019,4.91403572311139e-08,0.0213
2.122,4.4332722263042e-08,0.0197
2.231,4.224122635262905e-08,0.0239
2.307,3.866104053072024e-08,0.0271
2.346,3.745231299773621e-08,0.0411
2.365,3.379058004874961e-08,0.0524
2.385,3.454975207570192e-08,0.061
2.466,3.3926896425999686e-08,0.0323
2.592,2.9042164584056017e-08,0.0242
2.725,2.7592271381065628e-08,0.0351
2.865,2.4594449443124816e-08,0.0295
3.012,2.2584757146123932e-08,0.029
3.166,1.9179899404168098e-08,0.0281
3.329,1.831470335415618e-08,0.0328
3.679,1.5726772542624403e-08,0.022
4.066,1.3981080073728332e-08,0.0246
4.493,1.2480057903277693e-08,0.0274
4.724,1.1395510984089098e-08,0.035
4.966,1.0089496014679373e-08,0.0356
5.22,1.0250103707509783e-08,0.0377
5.488,9.960914269247517e-09,0.0405
5.77,9.665006839561817e-09,0.0385
6.065,9.011989843530737e-09,0.037
6.376,9.668482609824817e-09,0.0385
6.592,9.27825613379971e-09,0.0459
6.703,9.87717695533509e-09,0.064
7.047,1.0839093098093339e-08,0.0384
7.408,1.1769568035532476e-08,0.0328
7.788,1.2757720864921177e-08,0.0335
8.187,1.373021874388825e-08,0.0308
8.607,1.5398585856179607e-08,0.0291
9.048,1.6824616980410914e-08,0.0263
9.512,1.959439630260767e-08,0.0263
10.0,2.4889801374034102e-08,0.0235
10.51,3.973837699025446e-08,0.0175
11.05,4.1627445091368894e-08,0.0165
11.62,4.376773650292884e-08,0.0156
12.21,4.790304865000836e-08,0.0154
12.52,5.032411045782144e-08,0.0206
12.84,4.997160506350565e-08,0.02
13.5,5.2223880373151676e-08,0.0142
13.84,4.8732243733177436e-08,0.0275
14.19,9.474328283610281e-09,0.0439
14.55,0.0,0.0
14.92,0.0,0.0
15.68,0.0,0.0
16.49,0.0,0.0
16.9,0.0,0.0
17.33,0.0,0.0
19.64,0.0,0.0
