Energy,Value,Error
1e-07,3.648059171504585e-09,0.0063
4.14e-07,2.3743858670372125e-08,0.0055
5.316e-07,2.8663533172194474e-08,0.0117
6.826e-07,3.1262865384445464e-08,0.0118
8.764e-07,3.411419378868239e-08,0.0108
1.125e-06,3.701633395076993e-08,0.0101
1.445e-06,4.081353247798499e-08,0.0099
1.855e-06,4.435665454370742e-08,0.0107
2.382e-06,4.9572540391280824e-08,0.0092
3.059e-06,5.340047359166583e-08,0.009
3.928e-06,5.8392914004109597e-08,0.0088
5.043e-06,6.278205767028729e-08,0.0078
6.476e-06,6.943330100818445e-08,0.0082
8.315e-06,7.499177557197298e-08,0.0071
1.068e-05,8.243161737241125e-08,0.007
1.371e-05,8.983487902075308e-08,0.0069
1.76e-05,9.657673387961387e-08,0.0065
2.26e-05,1.0500377745099973e-07,0.0061
2.902e-05,1.1195777312173535e-07,0.0059
3.727e-05,1.2326048271317885e-07,0.0058
4.785e-05,1.3188563667819344e-07,0.0053
6.144e-05,1.4242491355175576e-07,0.0051
7.889e-05,1.537636665768763e-07,0.005
0.0001013,1.636115008247086e-07,0.0048
0.0001301,2.0838554280103845e-07,0.0045
0.000167,2.441719562794187e-07,0.0042
0.0002145,2.585976092171994e-07,0.0039
0.0002754,2.7532697865251e-07,0.0037
0.0003536,2.8997076960470813e-07,0.0035
0.000454,3.068492532966685e-07,0.0034
0.0005829,3.2154209087548623e-07,0.0033
0.0007485,3.415245012229926e-07,0.0034
0.0009611,3.6545899003910585e-07,0.0031
0.001234,4.155794915345445e-07,0.0029
0.001585,6.470387788054699e-07,0.0022
0.002035,5.647601248617375e-07,0.0024
0.002249,6.412600617160498e-07,0.0037
0.002485,7.7305270607399e-07,0.0033
0.002613,8.08468435451769e-07,0.0046
0.002747,8.316746694402618e-07,0.0044
0.003035,8.80080486731198e-07,0.003
0.003355,1.007688062933179e-06,0.0028
0.003707,2.041060891413287e-06,0.0018
0.004307,1.1486436076740354e-06,0.0022
0.005531,6.330263594572493e-06,0.0006
0.007102,1.358441597558574e-06,0.0016
0.009119,2.0090428736283233e-06,0.0013
0.01059,3.872804805810643e-06,0.0012
0.01171,8.24267505856045e-06,0.0008
0.01503,5.348650307905194e-06,0.0007
0.0193,5.978439494990626e-06,0.0007
0.02187,5.39512850330883e-06,0.0016
0.02358,6.013650314838014e-06,0.0013
0.02418,6.141692466634433e-06,0.0024
0.02479,6.222239846116048e-06,0.0023
0.02606,6.307031020615553e-06,0.0016
0.027,6.298917628911574e-06,0.0019
0.0285,6.330267987864252e-06,0.0016
0.03183,6.407375350797835e-06,0.0011
0.03431,6.2670390947112985e-06,0.0013
0.04087,6.363246221573677e-06,0.0009
0.04631,6.379614648033656e-06,0.0011
0.05248,6.313563049538234e-06,0.001
0.05656,5.890673498500651e-06,0.0014
0.06738,5.642344178402469e-06,0.0009
0.07202,5.446889730587341e-06,0.0016
0.0795,5.180210633708807e-06,0.0013
0.0825,4.8930285537726975e-06,0.0023
0.08652,4.6932037684943195e-06,0.002
0.09804,4.2128414298365695e-06,0.0013
0.1111,1.8677521272797288e-06,0.0021
0.1168,1.503726374809311e-06,0.0037
0.1228,1.5119232377850109e-06,0.0039
0.1291,1.4921043177763804e-06,0.0039
0.1357,1.4746786603983682e-06,0.004
0.1426,1.4717883466819785e-06,0.0038
0.15,1.4623974696262748e-06,0.0039
0.1576,1.4514976095057461e-06,0.004
0.1657,1.4413927783829969e-06,0.004
0.1742,1.432555711392715e-06,0.0042
0.1832,1.4208013852879354e-06,0.0041
0.1925,1.4040857695528793e-06,0.0042
0.2024,1.3981216836297658e-06,0.0041
0.2128,1.3931097588017564e-06,0.0042
0.2237,1.3937570366767752e-06,0.0042
0.2352,1.368979139056188e-06,0.0042
0.2472,1.3672414804708753e-06,0.0041
0.2732,1.3436539777526809e-06,0.0033
0.2872,1.3329462181281742e-06,0.0043
0.2945,1.2999754705667716e-06,0.0064
0.2972,1.3001640665821233e-06,0.0103
0.2985,1.320632727352548e-06,0.0138
0.302,1.310816606387864e-06,0.0138
0.3337,1.2786808491349493e-06,0.0033
0.3688,1.2365803005148891e-06,0.0033
0.3877,1.1937506975735926e-06,0.005
0.4076,1.1528284160287542e-06,0.0048
0.4505,1.099430875794829e-06,0.0035
0.4979,1.0136426164369906e-06,0.0037
0.5234,9.20502584747462e-07,0.0056
0.5502,8.541196921681132e-07,0.0058
0.5784,7.950472398547087e-07,0.0061
0.6081,7.139979770806736e-07,0.0063
0.6393,6.460184327324133e-07,0.0066
0.6721,5.721308326710717e-07,0.0071
0.7065,4.984708013910543e-07,0.0075
0.7427,4.253297678244984e-07,0.0078
0.7808,3.616318729466256e-07,0.0087
0.8209,2.917539815193706e-07,0.0104
0.8629,2.2943028546477927e-07,0.0112
0.9072,1.7045539620703016e-07,0.0123
0.9617,1.3104336580296867e-07,0.0133
1.003,1.1545478321342254e-07,0.0244
1.108,9.585151208438656e-08,0.0125
1.165,8.62835294443188e-08,0.0209
1.225,7.781061150160395e-08,0.0179
1.287,7.75920732863775e-08,0.0219
1.353,7.222894665737283e-08,0.0208
1.423,6.951533594525201e-08,0.0242
1.496,6.370388585170153e-08,0.0216
1.572,6.020222727203771e-08,0.0228
1.653,5.639219315042792e-08,0.025
1.738,4.956503779706742e-08,0.0224
1.827,4.434779512498107e-08,0.0237
1.921,3.7562631500403125e-08,0.026
2.019,3.4278768078286965e-08,0.028
2.122,3.1566401566391316e-08,0.0285
2.231,2.856388499129359e-08,0.0294
2.307,2.6791847043254922e-08,0.0378
2.346,2.5816923827933235e-08,0.0506
2.365,2.4407930579892695e-08,0.099
2.385,2.340999915689017e-08,0.1028
2.466,2.469360667905407e-08,0.041
2.592,2.3121515459598507e-08,0.0372
2.725,2.1919256578980353e-08,0.0339
2.865,1.8883682074945654e-08,0.0404
3.012,1.8618209868754596e-08,0.0382
3.166,1.8611520820634518e-08,0.0345
3.329,1.7741231616540275e-08,0.0364
3.679,1.618631492020483e-08,0.0353
4.066,1.4363208466369693e-08,0.0284
4.493,1.4095004053037853e-08,0.027
4.724,1.4589729457414729e-08,0.0374
4.966,1.4484718666994473e-08,0.0395
5.22,1.4832051600223957e-08,0.0401
5.488,1.3997546474495724e-08,0.0382
5.77,1.4169579835825535e-08,0.0414
6.065,1.4296606568939594e-08,0.0366
6.376,1.524470895412811e-08,0.0372
6.592,1.6434279227629652e-08,0.0497
6.703,1.6842936335893933e-08,0.0619
7.047,1.7510247967301546e-08,0.039
7.408,1.7626568995026776e-08,0.0319
7.788,2.005373857952971e-08,0.031
8.187,2.168665603184896e-08,0.0296
8.607,2.1948579179191704e-08,0.0299
9.048,2.4156702251332295e-08,0.0278
9.512,2.843587363711404e-08,0.025
10.0,3.604490002559958e-08,0.023
10.51,5.446132031858587e-08,0.0191
11.05,5.5085056986710584e-08,0.0174
11.62,5.645389863056981e-08,0.0168
12.21,6.047019899678656e-08,0.0165
12.52,6.628250079115656e-08,0.0236
12.84,6.330986083391742e-08,0.0224
13.5,6.162369604139893e-08,0.016
13.84,5.6669279824853974e-08,0.0221
14.19,1.143564561210351e-08,0.0469
14.55,0.0,0.0
14.92,0.0,0.0
15.68,0.0,0.0
16.49,0.0,0.0
16.9,0.0,0.0
17.33,0.0,0.0
19.64,0.0,0.0
