Energy,Value,Error
1e-07,0.0,0.0
4.14e-07,2.9840589634279516e-12,0.3589
5.316e-07,2.554980894136775e-11,0.421
6.826e-07,4.165504921737699e-11,0.245
8.764e-07,1.0671329238643024e-10,0.1715
1.125e-06,2.174200440583435e-10,0.1382
1.445e-06,1.9758252642383404e-10,0.137
1.855e-06,2.0138814765747183e-10,0.1527
2.382e-06,3.1618305971910003e-10,0.1048
3.059e-06,4.599364641165098e-10,0.0992
3.928e-06,6.201870015382336e-10,0.0968
5.043e-06,8.004818407790872e-10,0.0752
6.476e-06,9.71775932424947e-10,0.0682
8.315e-06,1.3284387694601124e-09,0.0657
1.068e-05,1.7625063598155876e-09,0.053
1.371e-05,2.1104279726630108e-09,0.0484
1.76e-05,2.7146885016855503e-09,0.0405
2.26e-05,3.6013292678353187e-09,0.037
2.902e-05,4.8489945232895746e-09,0.0333
3.727e-05,6.249593679811298e-09,0.0292
4.785e-05,7.581526216260841e-09,0.0279
6.144e-05,1.0306253448118136e-08,0.023
7.889e-05,1.3222669699015626e-08,0.0208
0.0001013,1.6813252332470865e-08,0.0187
0.0001301,2.1545620619310152e-08,0.0155
0.000167,2.8008402592257094e-08,0.0142
0.0002145,3.4826509607285126e-08,0.0132
0.0002754,4.5763587457454354e-08,0.0118
0.0003536,5.9073365401093264e-08,0.0101
0.000454,7.580296186039883e-08,0.009
0.0005829,9.482173198298154e-08,0.0078
0.0007485,1.2200448630459374e-07,0.0075
0.0009611,1.5924457683083785e-07,0.0061
0.001234,2.019550927668118e-07,0.0053
0.001585,2.210164208007699e-07,0.0051
0.002035,3.0016476450654167e-07,0.0044
0.002249,3.5264677925086446e-07,0.0065
0.002485,3.899536536475336e-07,0.0061
0.002613,4.116765298040759e-07,0.0084
0.002747,4.324118803943173e-07,0.0081
0.003035,4.5824950379356814e-07,0.0057
0.003355,5.156945492315688e-07,0.0054
0.003707,5.567982118560172e-07,0.0051
0.004307,6.098827082011551e-07,0.004
0.005531,7.091596761371434e-07,0.0029
0.007102,8.902682111383043e-07,0.0025
0.009119,1.0782902422821563e-06,0.0022
0.01059,1.259331237534464e-06,0.0027
0.01171,1.3961582254016353e-06,0.0031
0.01503,1.6231524109934952e-06,0.0018
0.0193,2.027922508546618e-06,0.0016
0.02187,2.4397583998125577e-06,0.002
0.02358,2.4675803422743857e-06,0.0026
0.02418,2.656697282969645e-06,0.0043
0.02479,2.7410623388567343e-06,0.0043
0.02606,2.851531325495833e-06,0.0029
0.027,2.890225748116556e-06,0.0035
0.0285,2.9873552996665054e-06,0.0028
0.03183,3.2935567868274837e-06,0.0018
0.03431,3.6658901910601626e-06,0.0021
0.04087,3.853904638011007e-06,0.0013
0.04631,4.820896095456978e-06,0.0014
0.05248,4.701112511614924e-06,0.0014
0.05656,4.4170902031785645e-06,0.0018
0.06738,5.523952587727829e-06,0.001
0.07202,6.137280477496867e-06,0.0016
0.0795,6.665883138160083e-06,0.0012
0.0825,7.68877490108126e-06,0.0018
0.08652,8.746144322353527e-06,0.0015
0.09804,6.346154153881991e-06,0.001
0.1111,1.6781637554471673e-06,0.002
0.1168,1.913678940783609e-06,0.003
0.1228,3.068634323397069e-06,0.0024
0.1291,2.4689447014399663e-06,0.0027
0.1357,1.0456049809376518e-07,0.0194
0.1426,7.363196028032763e-07,0.0054
0.15,1.0625380941618016e-06,0.0042
0.1576,2.269464133211977e-06,0.0027
0.1657,3.2286321916983845e-06,0.0023
0.1742,4.3761396782051605e-07,0.0076
0.1832,1.6031321370287366e-06,0.0033
0.1925,4.474420123368364e-06,0.002
0.2024,1.0305966686546846e-05,0.0013
0.2128,5.611771006341276e-06,0.0018
0.2237,8.100596572821388e-07,0.0065
0.2352,5.3498332491736526e-06,0.0019
0.2472,8.157127940787428e-07,0.0055
0.2732,7.12911358608524e-07,0.0048
0.2872,3.3810901907553335e-06,0.0025
0.2945,3.910276940890168e-06,0.0032
0.2972,1.9179931950299435e-06,0.0083
0.2985,3.477805636704429e-06,0.0084
0.302,4.845928653553045e-06,0.0043
0.3337,7.024890168348326e-06,0.0011
0.3688,1.9019797477561206e-06,0.0025
0.3877,3.0452593200947924e-06,0.0027
0.4076,4.051227672494252e-06,0.0022
0.4505,6.456825568262034e-06,0.0012
0.4979,9.896584922837951e-06,0.001
0.5234,6.645299044636558e-06,0.0019
0.5502,1.1326930550233714e-05,0.0014
0.5784,1.5393600644412947e-05,0.0011
0.6081,5.2823568400441285e-06,0.0021
0.6393,4.835584834604138e-06,0.0023
0.6721,7.682381812361775e-06,0.0017
0.7065,8.5834693878795e-06,0.0016
0.7427,1.3567954153018586e-05,0.0012
0.7808,9.429118369369798e-06,0.0015
0.8209,1.3071453731851388e-05,0.0013
0.8629,1.306588240392996e-05,0.0012
0.9072,6.102254047228346e-06,0.0019
0.9617,5.389613555320435e-06,0.0018
1.003,5.937157472059129e-06,0.0019
1.108,3.907360211019937e-06,0.0016
1.165,3.639486185616668e-06,0.0023
1.225,4.3255884350599795e-06,0.0021
1.287,3.3336786890225993e-06,0.0025
1.353,4.158673284690889e-06,0.0022
1.423,6.057395123448505e-06,0.0017
1.496,5.464387980758923e-06,0.0018
1.572,5.908848859001517e-06,0.0018
1.653,4.503840092693689e-06,0.0021
1.738,4.4291342504631144e-06,0.002
1.827,4.446253223455878e-06,0.002
1.921,4.429047523767909e-06,0.002
2.019,4.073963826052708e-06,0.0021
2.122,3.85089840532083e-06,0.0021
2.231,4.272354972740078e-06,0.0019
2.307,3.5310100581857755e-06,0.0026
2.346,4.028001804619059e-06,0.0034
2.365,4.668687262433252e-06,0.0045
2.385,4.2764116032314646e-06,0.0046
2.466,3.4042471238641433e-06,0.0026
2.592,3.252744908763445e-06,0.0022
2.725,2.8426026894304075e-06,0.0023
2.865,3.0591464761655264e-06,0.0021
3.012,2.415702637729562e-06,0.0024
3.166,2.704180133350452e-06,0.0022
3.329,3.002529900704099e-06,0.002
3.679,2.256449103672266e-06,0.0017
4.066,1.8963546405201246e-06,0.0018
4.493,1.7021073780575017e-06,0.0019
4.724,1.7482204257495387e-06,0.0026
4.966,1.7885041297856482e-06,0.0026
5.22,1.8330918906660268e-06,0.0025
5.488,1.896002751320299e-06,0.0024
5.77,1.9708394937028076e-06,0.0024
6.065,2.081064514183848e-06,0.0023
6.376,2.1822407128225905e-06,0.0023
6.592,2.2158041148566446e-06,0.0027
6.703,2.217027475569288e-06,0.0038
7.047,2.2531107742737792e-06,0.0022
7.408,2.298627723138842e-06,0.0022
7.788,2.338916491430635e-06,0.0022
8.187,2.399494371864699e-06,0.0021
8.607,2.4936088531335957e-06,0.0021
9.048,2.6419754535875445e-06,0.0021
9.512,2.8210920519929094e-06,0.002
10.0,3.296040831459871e-06,0.0018
10.51,5.655270803545119e-06,0.0014
11.05,5.959474510534623e-06,0.0014
11.62,6.363877399053548e-06,0.0013
12.21,6.72038268375541e-06,0.0013
12.52,6.981192510096344e-06,0.0019
12.84,7.108625057191169e-06,0.0019
13.5,7.059018970371543e-06,0.0013
13.84,6.454721631641521e-06,0.002
14.19,2.400916999523208e-06,0.0033
14.55,0.0,0.0
14.92,0.0,0.0
15.68,0.0,0.0
16.49,0.0,0.0
16.9,0.0,0.0
17.33,0.0,0.0
19.64,0.0,0.0
