Energy,Value,Error
1e-07,0.0,0.0
4.14e-07,2.3428590613808196e-12,0.2629
5.316e-07,1.0441541101858411e-11,0.224
6.826e-07,4.0119957960991256e-11,0.1382
8.764e-07,7.644402784748335e-11,0.101
1.125e-06,1.399022930166849e-10,0.0718
1.445e-06,2.1997330324405053e-10,0.0628
1.855e-06,4.0648522779827187e-10,0.051
2.382e-06,6.183180535546022e-10,0.0375
3.059e-06,9.77782739615627e-10,0.0308
3.928e-06,1.4595368985147138e-09,0.0324
5.043e-06,2.1786303292018e-09,0.0206
6.476e-06,3.0373340710700744e-09,0.0176
8.315e-06,4.386135522829402e-09,0.0155
1.068e-05,5.9794243541425335e-09,0.0129
1.371e-05,7.977052174994146e-09,0.012
1.76e-05,1.0755428355872878e-08,0.0104
2.26e-05,1.3813101893267675e-08,0.0095
2.902e-05,1.790958821623399e-08,0.0101
3.727e-05,2.2390816917034694e-08,0.0081
4.785e-05,2.841600638839725e-08,0.0073
6.144e-05,3.508996767750131e-08,0.0067
7.889e-05,4.293833558714157e-08,0.0062
0.0001013,5.20369529770437e-08,0.0056
0.0001301,6.354884614356506e-08,0.0054
0.000167,7.647269555823867e-08,0.0049
0.0002145,9.211998762110211e-08,0.0046
0.0002754,1.105240454065595e-07,0.004
0.0003536,1.325744927899333e-07,0.0037
0.000454,1.6110855149089858e-07,0.0033
0.0005829,1.9518527176994531e-07,0.0031
0.0007485,2.79815815067221e-07,0.0026
0.0009611,3.5708803306370936e-07,0.0023
0.001234,4.3451620733457146e-07,0.0021
0.001585,4.911844429985154e-07,0.0019
0.002035,4.4210066002177926e-07,0.0019
0.002249,3.0408085179198986e-07,0.0036
0.002485,1.8574265680160106e-07,0.0047
0.002613,9.134094159272404e-08,0.0098
0.002747,4.2017043165292883e-08,0.014
0.003035,7.852599379931456e-09,0.0268
0.003355,2.2849182922877533e-09,0.0498
0.003707,3.0832960074451406e-08,0.0142
0.004307,1.207862898813534e-07,0.0056
0.005531,4.3130485410616286e-07,0.0021
0.007102,1.7383497390931476e-06,0.0009
0.009119,1.0131539991589333e-05,0.0003
0.01059,9.208892690182223e-06,0.0005
0.01171,3.960420247352076e-05,0.0003
0.01503,8.4836032055014e-06,0.0005
0.0193,6.677080506245091e-06,0.0005
0.02187,1.7328671289990525e-05,0.0005
0.02358,2.8578673448997492e-05,0.0005
0.02418,3.982377474849824e-05,0.0007
0.02479,8.981155241812705e-05,0.0004
0.02606,5.5260653919168003e-05,0.0003
0.027,1.0146268205893944e-06,0.0041
0.0285,5.349340935318326e-07,0.0056
0.03183,5.146040517713629e-06,0.001
0.03431,1.8794413086004499e-06,0.0023
0.04087,7.341758723153122e-06,0.0006
0.04631,2.9003304497913814e-06,0.0013
0.05248,2.223519689249897e-06,0.0015
0.05656,4.632610792456956e-06,0.0012
0.06738,3.863134056511294e-06,0.001
0.07202,1.7033402435061435e-05,0.0006
0.0795,2.805304377989687e-06,0.0016
0.0825,4.3834888121872876e-06,0.0019
0.08652,4.846953535911292e-06,0.0016
0.09804,5.3217378061955235e-06,0.0009
0.1111,3.366986809036509e-06,0.0012
0.1168,3.023822150841043e-06,0.0021
0.1228,3.0085072964515057e-06,0.002
0.1291,2.993786834585565e-06,0.002
0.1357,2.980829904166752e-06,0.002
0.1426,2.9554846858012404e-06,0.0021
0.15,2.9267399190121942e-06,0.0021
0.1576,2.8327229236378398e-06,0.0021
0.1657,2.7284002127219596e-06,0.0021
0.1742,2.621921698510144e-06,0.0021
0.1832,2.55614024444218e-06,0.0022
0.1925,2.5470083669180537e-06,0.0022
0.2024,2.6307989846468973e-06,0.0021
0.2128,2.718192849850213e-06,0.0021
0.2237,2.8194440165974653e-06,0.002
0.2352,2.914801257207619e-06,0.002
0.2472,3.012609571702479e-06,0.0019
0.2732,3.1947254700621938e-06,0.0013
0.2872,3.388173773705622e-06,0.0018
0.2945,3.5040047260574807e-06,0.0025
0.2972,3.5616367275951087e-06,0.0041
0.2985,3.570001521113451e-06,0.006
0.302,3.6016895861020877e-06,0.0037
0.3337,3.730467622713673e-06,0.0012
0.3688,3.9310541095334484e-06,0.0012
0.3877,4.089512304157418e-06,0.0016
0.4076,4.2075574085520264e-06,0.0016
0.4505,4.271104384937543e-06,0.0011
0.4979,4.339053325379509e-06,0.0011
0.5234,4.333636497466573e-06,0.0015
0.5502,4.252455186065078e-06,0.0016
0.5784,4.192056352066744e-06,0.0016
0.6081,4.107667657193635e-06,0.0016
0.6393,3.988868825585578e-06,0.0016
0.6721,3.856630619872073e-06,0.0016
0.7065,3.707724294057455e-06,0.0016
0.7427,3.5368934008583474e-06,0.0017
0.7808,3.3293527752218538e-06,0.0017
0.8209,3.1208453196750616e-06,0.0018
0.8629,2.903010581798539e-06,0.0018
0.9072,2.684017829842538e-06,0.0019
0.9617,2.4378458937446353e-06,0.0019
1.003,2.202472880519867e-06,0.0024
1.108,1.900401253624453e-06,0.0016
1.165,1.5967108630123898e-06,0.0024
1.225,1.414787810097786e-06,0.0026
1.287,1.2431125273160488e-06,0.0028
1.353,1.0834841894421891e-06,0.0029
1.423,9.491312679808218e-07,0.0031
1.496,8.337744161284045e-07,0.0033
1.572,7.42624970548315e-07,0.0036
1.653,6.540218210941146e-07,0.0037
1.738,5.831338114124011e-07,0.0041
1.827,5.234194804936326e-07,0.0042
1.921,4.706999117405148e-07,0.0043
2.019,4.225039699881989e-07,0.0046
2.122,3.8212139613275777e-07,0.0048
2.231,3.4507282834972963e-07,0.0049
2.307,3.114568077903978e-07,0.0066
2.346,2.914296543683289e-07,0.0092
2.365,2.8775747739449886e-07,0.0148
2.385,2.8601599726745203e-07,0.0147
2.466,2.687102417255998e-07,0.0068
2.592,2.5032120811888364e-07,0.0059
2.725,2.322544690365113e-07,0.0063
2.865,2.1890453220121586e-07,0.0062
3.012,2.0911760357749933e-07,0.0064
3.166,2.0641275304269556e-07,0.0065
3.329,2.0428859999357268e-07,0.0066
3.679,1.9543855169113597e-07,0.0045
4.066,1.9512343565643008e-07,0.0046
4.493,1.9624494751708186e-07,0.0044
4.724,1.9606417485499315e-07,0.0061
4.966,2.0231475287371178e-07,0.0061
5.22,2.030182206173684e-07,0.0065
5.488,2.0134425832867432e-07,0.0058
5.77,2.0211665958221873e-07,0.0057
6.065,2.0365019331078172e-07,0.0057
6.376,2.036459370186769e-07,0.0062
6.592,2.0788512876973598e-07,0.0067
6.703,2.0693785527741001e-07,0.0096
7.047,2.0735588598918194e-07,0.0056
7.408,2.1226016320412507e-07,0.0055
7.788,2.1134228800654537e-07,0.0054
8.187,2.1206905265764257e-07,0.0051
8.607,2.1777476007410933e-07,0.005
9.048,2.2168226172519e-07,0.0049
9.512,2.3900218919686465e-07,0.0047
10.0,3.1351203884500996e-07,0.0041
10.51,5.31037175836064e-07,0.0031
11.05,6.214228478873924e-07,0.0028
11.62,7.76792825388994e-07,0.0025
12.21,9.83763846287415e-07,0.0022
12.52,1.1636091960304727e-06,0.0028
12.84,1.2812142945887725e-06,0.0027
13.5,1.386999500797435e-06,0.0018
13.84,1.2213233892400848e-06,0.0026
14.19,2.7150008501741225e-07,0.0057
14.55,0.0,0.0
14.92,0.0,0.0
15.68,0.0,0.0
16.49,0.0,0.0
16.9,0.0,0.0
17.33,0.0,0.0
19.64,0.0,0.0
