Energy,Value,Error
1e-07,6.72026e-12,0.0718
4.14e-07,8.1805e-11,0.0257
5.316e-07,4.36977e-11,0.0352
6.826e-07,6.52601e-11,0.0362
8.764e-07,9.06587e-11,0.026
1.125e-06,1.1705e-10,0.0249
1.445e-06,1.45876e-10,0.02
1.855e-06,1.90897e-10,0.0226
2.382e-06,2.31357e-10,0.0178
3.059e-06,2.80159e-10,0.0163
3.928e-06,3.41642e-10,0.018
5.043e-06,4.03803e-10,0.013
6.476e-06,4.67736e-10,0.0116
8.315e-06,5.46197e-10,0.011
1.068e-05,6.25162e-10,0.01
1.371e-05,6.83295e-10,0.0099
1.76e-05,7.26299e-10,0.0085
2.26e-05,7.7645e-10,0.0075
2.902e-05,8.68359e-10,0.0071
3.727e-05,3.71674e-09,0.0047
4.785e-05,4.79007e-09,0.0042
6.144e-05,5.85053e-09,0.0037
7.889e-05,7.04479e-09,0.0034
0.0001013,8.45671e-09,0.003
0.0001301,1.01208e-08,0.0031
0.000167,1.18218e-08,0.0026
0.0002145,1.36248e-08,0.0024
0.0002754,1.52739e-08,0.0022
0.0003536,1.65758e-08,0.0021
0.000454,1.73089e-08,0.002
0.0005829,1.75854e-08,0.0018
0.0007485,1.98438e-08,0.0016
0.0009611,2.80643e-08,0.0013
0.001234,5.54914e-08,0.0009
0.001585,5.74953e-08,0.0009
0.002035,8.41681e-08,0.0008
0.002249,4.47444e-08,0.0012
0.002485,9.99551e-08,0.0006
0.002613,2.0908e-08,0.0015
0.002747,2.39009e-08,0.0014
0.003035,5.641e-08,0.0009
0.003355,7.08471e-08,0.0008
0.003707,8.61739e-08,0.0007
0.004307,1.23536e-07,0.0006
0.005531,3.47203e-07,0.0004
0.007102,3.83341e-07,0.0003
0.009119,6.83251e-07,0.0002
0.01059,4.00059e-07,0.0003
0.01171,3.11346e-07,0.0004
0.01503,9.44849e-07,0.0002
0.0193,1.23278e-06,0.0002
0.02187,7.35593e-07,0.0003
0.02358,4.85077e-07,0.0003
0.02418,1.6964e-07,0.0005
0.02479,1.72471e-07,0.0005
0.02606,3.57036e-07,0.0004
0.027,2.61099e-07,0.0004
0.0285,4.12287e-07,0.0004
0.03183,8.98224e-07,0.0002
0.03431,6.52619e-07,0.0003
0.04087,1.65204e-06,0.0002
0.04631,1.28181e-06,0.0002
0.05248,1.36075e-06,0.0002
0.05656,8.51181e-07,0.0003
0.06738,2.09796e-06,0.0002
0.07202,8.36873e-07,0.0003
0.0795,1.28381e-06,0.0002
0.0825,4.93041e-07,0.0003
0.08652,6.41571e-07,0.0003
0.09804,1.70779e-06,0.0002
0.1111,1.21019e-06,0.0002
0.1168,4.62847e-07,0.0004
0.1228,4.71865e-07,0.0004
0.1291,4.79009e-07,0.0004
0.1357,4.84903e-07,0.0004
0.1426,4.89158e-07,0.0004
0.15,5.05684e-07,0.0004
0.1576,4.9889e-07,0.0004
0.1657,5.10378e-07,0.0004
0.1742,5.13552e-07,0.0004
0.1832,5.19742e-07,0.0004
0.1925,5.12715e-07,0.0004
0.2024,5.18764e-07,0.0004
0.2128,5.15166e-07,0.0004
0.2237,5.08053e-07,0.0004
0.2352,5.03494e-07,0.0004
0.2472,4.91433e-07,0.0004
0.2732,9.54262e-07,0.0003
0.2872,4.55517e-07,0.0004
0.2945,2.22607e-07,0.0006
0.2972,7.96682e-08,0.001
0.2985,3.78374e-08,0.0014
0.302,1.00721e-07,0.0009
0.3337,8.15326e-07,0.0003
0.3688,7.20438e-07,0.0003
0.3877,3.17968e-07,0.0005
0.4076,2.87472e-07,0.0005
0.4505,4.72627e-07,0.0004
0.4979,3.31822e-07,0.0005
0.5234,1.13437e-07,0.0009
0.5502,8.36865e-08,0.001
0.5784,6.46117e-08,0.0011
0.6081,5.40091e-08,0.0013
0.6393,4.85809e-08,0.0014
0.6721,4.37862e-08,0.0014
0.7065,3.914e-08,0.0015
0.7427,3.50309e-08,0.0016
0.7808,3.16713e-08,0.0016
0.8209,2.93309e-08,0.0017
0.8629,2.73914e-08,0.0018
0.9072,2.56438e-08,0.0018
0.9617,2.77446e-08,0.0017
1.003,1.88879e-08,0.0021
1.108,4.23728e-08,0.0014
1.165,2.01656e-08,0.0021
1.225,1.92433e-08,0.0021
1.287,1.76578e-08,0.0022
1.353,1.58431e-08,0.0022
1.423,1.42014e-08,0.0023
1.496,1.29262e-08,0.0025
1.572,1.20198e-08,0.0026
1.653,1.17963e-08,0.0026
1.738,1.11101e-08,0.0027
1.827,1.03417e-08,0.0027
1.921,9.84116e-09,0.0034
2.019,9.24134e-09,0.0029
2.122,8.98042e-09,0.0029
2.231,8.76728e-09,0.003
2.307,5.73996e-09,0.0035
2.346,2.80562e-09,0.0054
2.365,1.36593e-09,0.0075
2.385,1.41094e-09,0.007
2.466,5.50021e-09,0.0035
2.592,7.98179e-09,0.003
2.725,7.55541e-09,0.003
2.865,7.11322e-09,0.0032
3.012,6.71915e-09,0.0031
3.166,6.28898e-09,0.0032
3.329,5.91764e-09,0.0033
3.679,1.06125e-08,0.0025
4.066,9.06958e-09,0.0027
4.493,7.67112e-09,0.0029
4.724,3.44083e-09,0.0043
4.966,3.23882e-09,0.0044
5.22,3.15916e-09,0.0043
5.488,3.20456e-09,0.0045
5.77,3.29639e-09,0.0042
6.065,3.38573e-09,0.004
6.376,3.63339e-09,0.004
6.592,2.55931e-09,0.0047
6.703,1.33769e-09,0.0063
7.047,4.27386e-09,0.0036
7.408,4.72149e-09,0.0034
7.788,5.29465e-09,0.0031
8.187,5.9566e-09,0.0031
8.607,6.43196e-09,0.0028
9.048,7.03541e-09,0.0027
9.512,8.29408e-09,0.0026
10.0,1.13695e-08,0.0021
10.51,1.89992e-08,0.0016
11.05,2.04968e-08,0.0015
11.62,2.21336e-08,0.0014
12.21,2.34114e-08,0.0014
12.52,1.22644e-08,0.0019
12.84,1.25769e-08,0.0018
13.5,2.47981e-08,0.0013
13.84,1.14094e-08,0.0018
14.19,3.18824e-09,0.0033
14.55,0.0,0.0
14.92,0.0,0.0
15.68,0.0,0.0
16.49,0.0,0.0
16.9,0.0,0.0
17.33,0.0,0.0
19.64,0.0,0.0
