Energy,Value,Error
1e-07,0.0,0.0
4.14e-07,1.26911e-12,0.134
5.316e-07,3.26895e-12,0.0899
6.826e-07,9.98215e-12,0.0513
8.764e-07,3.16646e-11,0.0319
1.125e-06,9.08431e-11,0.0197
1.445e-06,2.2659e-10,0.0133
1.855e-06,5.21044e-10,0.008
2.382e-06,1.11335e-09,0.0055
3.059e-06,2.17886e-09,0.0041
3.928e-06,4.01407e-09,0.003
5.043e-06,6.90194e-09,0.0023
6.476e-06,1.13121e-08,0.0018
8.315e-06,1.74748e-08,0.0014
1.068e-05,2.62285e-08,0.0012
1.371e-05,3.68188e-08,0.001
1.76e-05,5.03922e-08,0.0008
2.26e-05,6.67064e-08,0.0007
2.902e-05,8.53279e-08,0.0007
3.727e-05,1.06166e-07,0.0006
4.785e-05,1.28313e-07,0.0005
6.144e-05,1.51279e-07,0.0005
7.889e-05,1.73798e-07,0.0004
0.0001013,1.94836e-07,0.0005
0.0001301,2.13278e-07,0.0005
0.000167,2.27503e-07,0.0005
0.0002145,2.37918e-07,0.0005
0.0002754,2.42981e-07,0.0005
0.0003536,2.4385e-07,0.0005
0.000454,2.41646e-07,0.0005
0.0005829,2.37171e-07,0.0005
0.0007485,2.30857e-07,0.0005
0.0009611,2.21513e-07,0.0006
0.001234,2.0712e-07,0.0006
0.001585,1.84538e-07,0.0006
0.002035,1.50292e-07,0.0007
0.002249,4.74996e-08,0.0013
0.002485,3.90072e-08,0.0015
0.002613,1.61593e-08,0.0023
0.002747,1.37343e-08,0.0024
0.003035,2.01016e-08,0.002
0.003355,1.09383e-08,0.0028
0.003707,3.86681e-09,0.0047
0.004307,6.97418e-10,0.0103
0.005531,2.97352e-09,0.0059
0.007102,3.07511e-09,0.0055
0.009119,7.03906e-08,0.0011
0.01059,6.28793e-09,0.0041
0.01171,1.42815e-09,0.008
0.01503,6.48806e-09,0.0044
0.0193,2.27149e-08,0.0023
0.02187,9.44773e-08,0.0009
0.02358,1.03437e-08,0.0031
0.02418,6.43637e-09,0.0042
0.02479,7.85101e-09,0.0041
0.02606,2.0376e-08,0.0022
0.027,1.91577e-08,0.0022
0.0285,4.09192e-08,0.0015
0.03183,9.70147e-08,0.001
0.03431,1.27352e-07,0.0008
0.04087,9.87293e-07,0.0003
0.04631,8.62669e-07,0.0003
0.05248,3.25465e-06,0.0001
0.05656,4.02899e-07,0.0005
0.06738,1.17177e-05,0.0001
0.07202,3.80501e-08,0.0018
0.0795,4.32946e-07,0.0005
0.0825,2.15935e-07,0.0006
0.08652,2.63325e-07,0.0005
0.09804,1.10242e-06,0.0003
0.1111,3.22599e-06,0.0001
0.1168,8.49989e-08,0.0011
0.1228,4.88036e-08,0.0016
0.1291,7.76255e-08,0.0013
0.1357,6.29967e-07,0.0003
0.1426,7.2611e-08,0.0013
0.15,6.34618e-07,0.0003
0.1576,6.77189e-07,0.0003
0.1657,1.02457e-07,0.0009
0.1742,1.09257e-07,0.0009
0.1832,7.30158e-08,0.0012
0.1925,6.02901e-08,0.0013
0.2024,1.22792e-07,0.001
0.2128,7.09783e-08,0.0013
0.2237,2.30664e-07,0.0006
0.2352,1.84774e-07,0.0006
0.2472,6.36139e-08,0.0013
0.2732,7.82752e-07,0.0003
0.2872,8.37055e-08,0.001
0.2945,4.38347e-08,0.0014
0.2972,1.01846e-08,0.003
0.2985,4.96441e-09,0.0046
0.302,1.03172e-08,0.0033
0.3337,1.63759e-07,0.0007
0.3688,2.75976e-07,0.0005
0.3877,1.75558e-07,0.0006
0.4076,9.05925e-08,0.0009
0.4505,2.33965e-07,0.0006
0.4979,1.73823e-07,0.0007
0.5234,1.58756e-07,0.0007
0.5502,1.75496e-07,0.0006
0.5784,1.98882e-07,0.0006
0.6081,8.56091e-08,0.001
0.6393,1.63587e-07,0.0006
0.6721,8.6549e-08,0.0009
0.7065,7.49339e-08,0.0011
0.7427,7.80744e-08,0.001
0.7808,1.32379e-07,0.0007
0.8209,9.53418e-08,0.0009
0.8629,1.05466e-07,0.0008
0.9072,4.41481e-08,0.0014
0.9617,6.20196e-08,0.0011
1.003,4.46555e-08,0.0013
1.108,1.10506e-07,0.0008
1.165,3.49644e-08,0.0015
1.225,3.6287e-08,0.0015
1.287,3.56401e-08,0.0014
1.353,2.94921e-08,0.0016
1.423,3.25754e-08,0.0015
1.496,2.37474e-08,0.0018
1.572,2.5729e-08,0.0016
1.653,1.74746e-08,0.0025
1.738,1.70061e-08,0.0021
1.827,1.43541e-08,0.0023
1.921,1.30995e-08,0.0025
2.019,1.25869e-08,0.0024
2.122,1.17791e-08,0.0026
2.231,1.04479e-08,0.0027
2.307,6.67809e-09,0.0033
2.346,3.57604e-09,0.0055
2.365,1.86468e-09,0.0061
2.385,1.57606e-09,0.0068
2.466,6.40297e-09,0.0035
2.592,8.45009e-09,0.003
2.725,8.20352e-09,0.003
2.865,7.71355e-09,0.0032
3.012,7.41178e-09,0.003
3.166,6.99007e-09,0.0033
3.329,6.26228e-09,0.0034
3.679,1.11453e-08,0.0025
4.066,9.94712e-09,0.0026
4.493,9.02844e-09,0.0028
4.724,4.30148e-09,0.0051
4.966,4.22301e-09,0.0039
5.22,4.22531e-09,0.0037
5.488,4.22253e-09,0.0038
5.77,4.17771e-09,0.0039
6.065,4.13115e-09,0.0037
6.376,4.06003e-09,0.0037
6.592,2.6793e-09,0.0045
6.703,1.34886e-09,0.0064
7.047,4.01595e-09,0.0036
7.408,4.06415e-09,0.0035
7.788,4.07558e-09,0.0035
8.187,4.20494e-09,0.0034
8.607,4.28556e-09,0.0033
9.048,4.4752e-09,0.0032
9.512,4.78279e-09,0.0031
10.0,6.3427e-09,0.0026
10.51,9.30499e-09,0.0021
11.05,9.94682e-09,0.0021
11.62,1.06308e-08,0.0019
12.21,1.09569e-08,0.0019
12.52,5.76169e-09,0.0026
12.84,5.94684e-09,0.0025
13.5,1.19708e-08,0.0018
13.84,5.20551e-09,0.0025
14.19,1.14802e-09,0.0052
14.55,0.0,0.0
14.92,0.0,0.0
15.68,0.0,0.0
16.49,0.0,0.0
16.9,0.0,0.0
17.33,0.0,0.0
19.64,0.0,0.0
