Energy,Value,Error
1e-07,3.9550040348310736e-11,0.0132
4.14e-07,4.339683451434574e-09,0.0025
5.316e-07,1.3189702405172885e-08,0.0035
6.826e-07,1.7527158401792477e-08,0.003
8.764e-07,2.281428724143187e-08,0.0027
1.125e-06,2.852980330292963e-08,0.0023
1.445e-06,3.474493287211603e-08,0.0022
1.855e-06,4.1516502661504185e-08,0.002
2.382e-06,4.833081741904866e-08,0.0018
3.059e-06,5.564035121956001e-08,0.0019
3.928e-06,6.316210657363714e-08,0.0017
5.043e-06,7.018188330311118e-08,0.0015
6.476e-06,7.743563948802255e-08,0.0015
8.315e-06,8.48210238649812e-08,0.0013
1.068e-05,9.27327730308888e-08,0.0013
1.371e-05,9.856671795144452e-08,0.0013
1.76e-05,1.0517132372466874e-07,0.0012
2.26e-05,1.1172600600252396e-07,0.0012
2.902e-05,1.1810650390818344e-07,0.0012
3.727e-05,1.249211311709491e-07,0.0012
4.785e-05,1.3160390415618235e-07,0.0011
6.144e-05,1.381871435483649e-07,0.0012
7.889e-05,1.450622364507657e-07,0.0012
0.0001013,1.5293766426419904e-07,0.0011
0.0001301,1.6218404094844617e-07,0.0017
0.000167,1.7130252261302048e-07,0.001
0.0002145,1.8447967233607459e-07,0.001
0.0002754,2.5506087584980693e-07,0.0009
0.0003536,3.2622161685414067e-07,0.0009
0.000454,3.6009077622231147e-07,0.0008
0.0005829,4.01266898061049e-07,0.0007
0.0007485,4.566105250537043e-07,0.0007
0.0009611,5.320165545601756e-07,0.0006
0.001234,6.414077294176887e-07,0.0006
0.001585,8.416789285856061e-07,0.0005
0.002035,1.283174697751608e-06,0.0004
0.002249,2.2488081622181632e-06,0.0005
0.002485,8.83244429241528e-06,0.0002
0.002613,9.689579731721682e-08,0.0037
0.002747,3.5583384013803565e-07,0.0019
0.003035,7.880141450509921e-07,0.0011
0.003355,1.2234893932573072e-06,0.0007
0.003707,1.7132507100896556e-06,0.0006
0.004307,1.2557302704561207e-06,0.0006
0.005531,2.101664144947581e-06,0.0003
0.007102,6.205486301743187e-06,0.0002
0.009119,9.103032992301005e-06,0.0001
0.01059,2.10613826509397e-06,0.0005
0.01171,3.393183720123851e-06,0.0005
0.01503,7.643475892241432e-06,0.0002
0.0193,2.6917234483068135e-06,0.0003
0.02187,2.044704338994898e-06,0.0005
0.02358,3.544489271681715e-06,0.0005
0.02418,3.742463757449762e-06,0.0008
0.02479,1.744522205901043e-06,0.0013
0.02606,1.9255672523872605e-06,0.0009
0.027,2.341913666062918e-06,0.001
0.0285,3.2958046634063877e-06,0.0007
0.03183,4.393840308251817e-06,0.0004
0.03431,9.119348852339223e-06,0.0003
0.04087,3.279068552605927e-06,0.0003
0.04631,3.796893709656258e-06,0.0004
0.05248,4.998759770712729e-06,0.0003
0.05656,7.436235007482956e-06,0.0003
0.06738,1.3122191655266467e-05,0.0001
0.07202,4.173172334588178e-06,0.0005
0.0795,1.2396121704465595e-05,0.0002
0.0825,3.3709155851212742e-06,0.0008
0.08652,2.481750346925374e-06,0.0008
0.09804,4.738041608089284e-06,0.0004
0.1111,2.8931478212550637e-06,0.0005
0.1168,3.106428665190573e-06,0.0007
0.1228,3.371106007420699e-06,0.0007
0.1291,3.2188705142775665e-06,0.0007
0.1357,3.250348496650993e-06,0.0007
0.1426,2.057284131964345e-06,0.0009
0.15,3.1510451051142842e-06,0.0007
0.1576,2.3885944093723085e-06,0.0009
0.1657,2.9717223372330483e-06,0.0008
0.1742,2.8151445461169134e-06,0.0008
0.1832,2.52713741059786e-06,0.0008
0.1925,2.7385964195730357e-06,0.0008
0.2024,2.7695234115284323e-06,0.0008
0.2128,2.7553534598826737e-06,0.0008
0.2237,3.033264533079129e-06,0.0007
0.2352,2.748474861898304e-06,0.0008
0.2472,2.189141787804909e-06,0.0009
0.2732,2.759493334115782e-06,0.0006
0.2872,2.4667477067708496e-06,0.0008
0.2945,1.8937524220396705e-06,0.0014
0.2972,2.7396177293481376e-06,0.0018
0.2985,3.0579294494082737e-06,0.0024
0.302,1.6041918485091476e-06,0.0023
0.3337,2.258810478323322e-06,0.0006
0.3688,2.247497919584996e-06,0.0006
0.3877,1.9152234815365215e-06,0.0009
0.4076,1.8578725289131603e-06,0.001
0.4505,1.9648297297111705e-06,0.0007
0.4979,1.9408108400885794e-06,0.0007
0.5234,1.7366419944266904e-06,0.001
0.5502,1.6284610421170317e-06,0.001
0.5784,1.7345212093993011e-06,0.001
0.6081,1.3937224536154873e-06,0.0011
0.6393,1.3900412705592065e-06,0.0014
0.6721,1.2784802456939725e-06,0.0011
0.7065,1.1569482118011953e-06,0.0012
0.7427,9.808722869547648e-07,0.0013
0.7808,9.646361751281763e-07,0.0013
0.8209,7.663311667445154e-07,0.0014
0.8629,7.510595193988529e-07,0.0015
0.9072,7.074147623665938e-07,0.0015
0.9617,5.120482554162504e-07,0.0016
1.003,4.3058643161992485e-07,0.0021
1.108,4.335007242168888e-07,0.0014
1.165,3.853123325014355e-07,0.002
1.225,3.1693701756954454e-07,0.0021
1.287,2.576342980917e-07,0.0024
1.353,2.334113543910949e-07,0.0025
1.423,1.9973050786195416e-07,0.0027
1.496,1.748368283856489e-07,0.0029
1.572,1.4254361803878995e-07,0.0032
1.653,1.2470044450789254e-07,0.0032
1.738,9.937517359422577e-08,0.0036
1.827,7.847077170481956e-08,0.0042
1.921,6.935754319795161e-08,0.0044
2.019,5.8399256301808514e-08,0.0048
2.122,5.3398435869322106e-08,0.0051
2.231,4.671968672773433e-08,0.0054
2.307,4.1890480919744255e-08,0.0073
2.346,3.8652699232574676e-08,0.0102
2.365,3.66981190997003e-08,0.0143
2.385,3.650555301775256e-08,0.0153
2.466,3.4205054459533835e-08,0.0075
2.592,3.062246257263732e-08,0.0066
2.725,2.68830196273544e-08,0.0076
2.865,2.40561252522752e-08,0.0076
3.012,2.235412301713294e-08,0.0076
3.166,2.0256032463620337e-08,0.0078
3.329,1.8780054056976003e-08,0.0094
3.679,1.61864149511969e-08,0.0064
4.066,1.3678736730100004e-08,0.0072
4.493,1.1734220554520101e-08,0.0077
4.724,1.0928494434290189e-08,0.0106
4.966,1.051584742416253e-08,0.0119
5.22,1.032411732152755e-08,0.011
5.488,1.0404544343026676e-08,0.011
5.77,1.071070415768825e-08,0.0109
6.065,1.1058198477466997e-08,0.0106
6.376,1.1250600127516955e-08,0.0098
6.592,1.1818548431812855e-08,0.0119
6.703,1.2031276226453685e-08,0.0175
7.047,1.2644542945390328e-08,0.0092
7.408,1.3236685655159262e-08,0.0089
7.788,1.3435760963350628e-08,0.0086
8.187,1.4258825230457423e-08,0.0084
8.607,1.503844965922e-08,0.008
9.048,1.6285310887698952e-08,0.0076
9.512,1.6891539609007162e-08,0.0074
10.0,2.2296805588211504e-08,0.0063
10.51,3.8069166934200176e-08,0.0059
11.05,4.2328597309150133e-08,0.0044
11.62,4.553880489925886e-08,0.0042
12.21,4.798966713107851e-08,0.0042
12.52,4.5353241978544345e-08,0.0058
12.84,4.4860647597369494e-08,0.0057
13.5,4.341399710432303e-08,0.0041
13.84,3.776074470415173e-08,0.006
14.19,7.140271371772964e-09,0.0134
14.55,0.0,0.0
14.92,0.0,0.0
15.68,0.0,0.0
16.49,0.0,0.0
16.9,0.0,0.0
17.33,0.0,0.0
19.64,0.0,0.0
