Energy,Value,Error
1e-07,3.926036592888127e-11,0.0128
4.14e-07,4.346771527633723e-09,0.0026
5.316e-07,1.321242010132463e-08,0.0035
6.826e-07,1.7536957707624013e-08,0.0031
8.764e-07,2.2786357585730805e-08,0.0028
1.125e-06,2.8486754348850165e-08,0.0023
1.445e-06,3.472308139143689e-08,0.0022
1.855e-06,4.150849546702377e-08,0.002
2.382e-06,4.822204168685956e-08,0.0018
3.059e-06,5.559317906891008e-08,0.0019
3.928e-06,6.307172187588341e-08,0.0017
5.043e-06,7.018108288930556e-08,0.0015
6.476e-06,7.748042123628586e-08,0.0015
8.315e-06,8.480462111435996e-08,0.0013
1.068e-05,9.276832869711353e-08,0.0013
1.371e-05,9.854829972919525e-08,0.0013
1.76e-05,1.0527902133813686e-07,0.0012
2.26e-05,1.1170720983726001e-07,0.0012
2.902e-05,1.1812490130744041e-07,0.0012
3.727e-05,1.2489275426589456e-07,0.0012
4.785e-05,1.3156228457906708e-07,0.0011
6.144e-05,1.3810594029079568e-07,0.0011
7.889e-05,1.4509743738172222e-07,0.0012
0.0001013,1.5292246620554723e-07,0.0011
0.0001301,1.6196143414823256e-07,0.0017
0.000167,1.7106542902182682e-07,0.001
0.0002145,1.8446449152012946e-07,0.001
0.0002754,2.552541416777508e-07,0.0009
0.0003536,3.2622281713383234e-07,0.0009
0.000454,3.5974428040551536e-07,0.0008
0.0005829,4.008787714495066e-07,0.0007
0.0007485,4.5674249572517137e-07,0.0007
0.0009611,5.325565388834165e-07,0.0006
0.001234,6.416797971705731e-07,0.0006
0.001585,8.419545719231434e-07,0.0005
0.002035,1.2829666240199033e-06,0.0004
0.002249,2.24875815714469e-06,0.0005
0.002485,8.831502285814723e-06,0.0002
0.002613,9.688126310689825e-08,0.0037
0.002747,3.559118238853264e-07,0.0019
0.003035,7.884043076677081e-07,0.0011
0.003355,1.2235791774646352e-06,0.0007
0.003707,1.7128297467307735e-06,0.0006
0.004307,1.2561302206439154e-06,0.0006
0.005531,2.1012083765234094e-06,0.0003
0.007102,6.206086283015352e-06,0.0002
0.009119,9.104233070476831e-06,0.0001
0.01059,2.105904229671003e-06,0.0005
0.01171,3.3943773578201185e-06,0.0005
0.01503,7.643876525199592e-06,0.0002
0.0193,2.6914035211121918e-06,0.0003
0.02187,2.0452402929509744e-06,0.0005
0.02358,3.5433867660245808e-06,0.0005
0.02418,3.738030270709161e-06,0.0008
0.02479,1.7433742800340876e-06,0.0013
0.02606,1.9254431561522424e-06,0.0009
0.027,2.3413605452159494e-06,0.001
0.0285,3.296063600331036e-06,0.0006
0.03183,4.393632173163422e-06,0.0004
0.03431,9.1204551116727e-06,0.0003
0.04087,3.2803145556745268e-06,0.0003
0.04631,3.7982781346978215e-06,0.0004
0.05248,4.999727196262069e-06,0.0003
0.05656,7.433563706178067e-06,0.0003
0.06738,1.3119620905613719e-05,0.0001
0.07202,4.1730371905656835e-06,0.0005
0.0795,1.2398348128479788e-05,0.0002
0.0825,3.3703486499420174e-06,0.0008
0.08652,2.4830114523313913e-06,0.0008
0.09804,4.736377607524523e-06,0.0004
0.1111,2.8925720752188776e-06,0.0005
0.1168,3.1080076428420644e-06,0.0007
0.1228,3.3699681453569874e-06,0.0007
0.1291,3.2222884442329286e-06,0.0007
0.1357,3.2519128998518983e-06,0.0007
0.1426,2.0562961678102186e-06,0.0009
0.15,3.1527449857985263e-06,0.0007
0.1576,2.3840825120245244e-06,0.0009
0.1657,2.972021626439089e-06,0.0008
0.1742,2.813465390395936e-06,0.0008
0.1832,2.526919045661318e-06,0.0008
0.1925,2.73827330279824e-06,0.0008
0.2024,2.7679082500252842e-06,0.0008
0.2128,2.7571097078326503e-06,0.0008
0.2237,3.0326039135637382e-06,0.0007
0.2352,2.7485147578914222e-06,0.0008
0.2472,2.189804950966405e-06,0.0009
0.2732,2.758543394931963e-06,0.0006
0.2872,2.4627656926264787e-06,0.0008
0.2945,1.897322119558573e-06,0.0014
0.2972,2.73040261367864e-06,0.0018
0.2985,3.0707369790764253e-06,0.0024
0.302,1.605710238457844e-06,0.0023
0.3337,2.2598924760331956e-06,0.0006
0.3688,2.2453281822517728e-06,0.0006
0.3877,1.915679688170805e-06,0.0009
0.4076,1.857988402711133e-06,0.001
0.4505,1.9648097440560147e-06,0.0007
0.4979,1.9410007618852416e-06,0.0007
0.5234,1.736966339942576e-06,0.001
0.5502,1.626600655553408e-06,0.001
0.5784,1.733438859201736e-06,0.001
0.6081,1.3939301475938562e-06,0.0011
0.6393,1.3886362396272105e-06,0.0011
0.6721,1.2804229514166693e-06,0.0011
0.7065,1.1594163551648472e-06,0.0012
0.7427,9.812805401325593e-07,0.0013
0.7808,9.632629123072937e-07,0.0013
0.8209,7.674233697591619e-07,0.0015
0.8629,7.518711831446009e-07,0.0015
0.9072,7.086431869499202e-07,0.0016
0.9617,5.125402024090045e-07,0.0016
1.003,4.308409012708761e-07,0.0021
1.108,4.34228920420433e-07,0.0014
1.165,3.8456279844886916e-07,0.0019
1.225,3.178848517062147e-07,0.0021
1.287,2.5740340305874097e-07,0.0024
1.353,2.3381926937692358e-07,0.0025
1.423,1.9914370656838456e-07,0.0026
1.496,1.7483802772456264e-07,0.0029
1.572,1.4249902005931415e-07,0.0032
1.653,1.254386549620415e-07,0.0033
1.738,9.944178281475496e-08,0.0037
1.827,7.868442702056026e-08,0.0041
1.921,6.928857851426679e-08,0.0045
2.019,5.823324769227946e-08,0.0048
2.122,5.357811016133272e-08,0.0051
2.231,4.661367939660693e-08,0.0054
2.307,4.153643060532546e-08,0.007
2.346,3.8211807980689214e-08,0.0102
2.365,3.678428034305556e-08,0.0144
2.385,3.590420657145357e-08,0.0141
2.466,3.475178919498415e-08,0.0076
2.592,3.031924603159017e-08,0.0065
2.725,2.6907400780905475e-08,0.0071
2.865,2.4410417220669e-08,0.0073
3.012,2.241747745291296e-08,0.0078
3.166,2.0374553295907524e-08,0.0079
3.329,1.859386995376323e-08,0.0085
3.679,1.6205820963658937e-08,0.0063
4.066,1.3660240196180944e-08,0.0068
4.493,1.1752846460383275e-08,0.0076
4.724,1.1093368390070399e-08,0.0107
4.966,1.0509061831307377e-08,0.012
5.22,1.0415190953294265e-08,0.0109
5.488,1.0374084847168173e-08,0.0106
5.77,1.043041065730492e-08,0.0108
6.065,1.07861501370996e-08,0.0101
6.376,1.1213784839205219e-08,0.0102
6.592,1.179546632602341e-08,0.0117
6.703,1.2372626402861134e-08,0.0183
7.047,1.27509033772015e-08,0.0092
7.408,1.3366833670205492e-08,0.0091
7.788,1.3491034884930833e-08,0.0085
8.187,1.4265870381465427e-08,0.0086
8.607,1.495911455538847e-08,0.0081
9.048,1.6427662239838634e-08,0.0077
9.512,1.6957425877551552e-08,0.0075
10.0,2.2480491946584353e-08,0.0063
10.51,3.7682170745123397e-08,0.0053
11.05,4.221722727285013e-08,0.0044
11.62,4.579448450833838e-08,0.0042
12.21,4.787538727027268e-08,0.0042
12.52,4.531335697108806e-08,0.0058
12.84,4.4914930966069445e-08,0.0057
13.5,4.325678819977726e-08,0.0041
13.84,3.7674226105887684e-08,0.006
14.19,7.084254326215076e-09,0.0134
14.55,0.0,0.0
14.92,0.0,0.0
15.68,0.0,0.0
16.49,0.0,0.0
16.9,0.0,0.0
17.33,0.0,0.0
19.64,0.0,0.0
