Energy,Value,Error
1e-07,2.65762e-10,0.0121
4.14e-07,6.18661e-09,0.0027
5.316e-07,3.27816e-09,0.0035
6.826e-07,4.38351e-09,0.0031
8.764e-07,5.6651e-09,0.0027
1.125e-06,7.12597e-09,0.0027
1.445e-06,8.71334e-09,0.0022
1.855e-06,1.03445e-08,0.002
2.382e-06,1.21445e-08,0.0019
3.059e-06,1.39222e-08,0.0018
3.928e-06,1.57913e-08,0.0016
5.043e-06,1.75772e-08,0.0016
6.476e-06,1.9413e-08,0.0014
8.315e-06,2.11925e-08,0.0014
1.068e-05,2.31819e-08,0.0014
1.371e-05,2.44986e-08,0.0013
1.76e-05,2.62604e-08,0.0013
2.26e-05,2.79777e-08,0.0013
2.902e-05,2.96006e-08,0.0012
3.727e-05,3.12621e-08,0.0012
4.785e-05,3.27489e-08,0.0012
6.144e-05,3.45459e-08,0.0012
7.889e-05,3.61881e-08,0.0011
0.0001013,3.8229e-08,0.0011
0.0001301,4.03374e-08,0.001
0.000167,4.28219e-08,0.001
0.0002145,4.61198e-08,0.001
0.0002754,6.37622e-08,0.0009
0.0003536,8.16333e-08,0.0008
0.000454,8.99096e-08,0.0007
0.0005829,1.0024e-07,0.0007
0.0007485,1.14112e-07,0.0007
0.0009611,1.33009e-07,0.0006
0.001234,1.60473e-07,0.0006
0.001585,2.10732e-07,0.0005
0.002035,3.20637e-07,0.0004
0.002249,2.24759e-07,0.0005
0.002485,8.80823e-07,0.0002
0.002613,4.83924e-09,0.0036
0.002747,1.7765e-08,0.0019
0.003035,7.85764e-08,0.0009
0.003355,1.22431e-07,0.0007
0.003707,1.70989e-07,0.0006
0.004307,1.88369e-07,0.0006
0.005531,5.25566e-07,0.0003
0.007102,1.5523e-06,0.0002
0.009119,2.2754e-06,0.0001
0.01059,3.15204e-07,0.0005
0.01171,3.41321e-07,0.0005
0.01503,1.90826e-06,0.0002
0.0193,6.73099e-07,0.0003
0.02187,2.55714e-07,0.0005
0.02358,2.67101e-07,0.0005
0.02418,9.41856e-08,0.0008
0.02479,4.35188e-08,0.0013
0.02606,9.59948e-08,0.0009
0.027,8.28229e-08,0.001
0.0285,1.78252e-07,0.0007
0.03183,4.85484e-07,0.0004
0.03431,6.84124e-07,0.0003
0.04087,5.735e-07,0.0003
0.04631,4.7427e-07,0.0004
0.05248,6.25508e-07,0.0003
0.05656,5.56422e-07,0.0003
0.06738,2.2962e-06,0.0001
0.07202,2.78131e-07,0.0005
0.0795,1.22473e-06,0.0002
0.0825,1.25072e-07,0.0008
0.08652,1.18026e-07,0.0008
0.09804,5.92163e-07,0.0003
0.1111,3.61984e-07,0.0005
0.1168,1.55385e-07,0.0007
0.1228,1.69072e-07,0.0007
0.1291,1.61157e-07,0.0007
0.1357,1.62067e-07,0.0007
0.1426,1.02219e-07,0.0009
0.15,1.5956e-07,0.0007
0.1576,1.18061e-07,0.0009
0.1657,1.48905e-07,0.0008
0.1742,1.40749e-07,0.0008
0.1832,1.27403e-07,0.0008
0.1925,1.3558e-07,0.0008
0.2024,1.3879e-07,0.0008
0.2128,1.37997e-07,0.0008
0.2237,1.51549e-07,0.0007
0.2352,1.37593e-07,0.0008
0.2472,1.08948e-07,0.0009
0.2732,2.7593e-07,0.0006
0.2872,1.23282e-07,0.0008
0.2945,4.7643e-08,0.0014
0.2972,2.49168e-08,0.0018
0.2985,1.33731e-08,0.0024
0.302,1.87252e-08,0.0022
0.3337,2.25467e-07,0.0006
0.3688,2.24525e-07,0.0006
0.3877,9.57348e-08,0.001
0.4076,9.29519e-08,0.001
0.4505,1.96372e-07,0.0007
0.4979,1.94064e-07,0.0007
0.5234,8.66318e-08,0.001
0.5502,8.13789e-08,0.001
0.5784,8.65776e-08,0.001
0.6081,6.97883e-08,0.0011
0.6393,6.94743e-08,0.0011
0.6721,6.41468e-08,0.0011
0.7065,5.77053e-08,0.0012
0.7427,4.89793e-08,0.0013
0.7808,4.81278e-08,0.0013
0.8209,3.84597e-08,0.0015
0.8629,3.75494e-08,0.0015
0.9072,3.54257e-08,0.0015
0.9617,2.98358e-08,0.0016
1.003,1.80714e-08,0.0021
1.108,4.32069e-08,0.0013
1.165,1.92899e-08,0.002
1.225,1.59241e-08,0.0021
1.287,1.27394e-08,0.0024
1.353,1.17107e-08,0.0026
1.423,1.00783e-08,0.0028
1.496,8.75004e-09,0.0029
1.572,7.05397e-09,0.0032
1.653,6.25986e-09,0.0033
1.738,5.00464e-09,0.0036
1.827,3.94627e-09,0.0042
1.921,3.48028e-09,0.0045
2.019,2.89219e-09,0.0048
2.122,2.64722e-09,0.0051
2.231,2.32493e-09,0.0054
2.307,1.3897e-09,0.007
2.346,6.36018e-10,0.0096
2.365,3.04405e-10,0.0143
2.385,3.02204e-10,0.0139
2.466,1.14286e-09,0.0082
2.592,1.52511e-09,0.0066
2.725,1.34308e-09,0.0074
2.865,1.21216e-09,0.0075
3.012,1.11522e-09,0.0076
3.166,1.0264e-09,0.0078
3.329,9.39183e-10,0.0084
3.679,1.61542e-09,0.0065
4.066,1.36142e-09,0.0072
4.493,1.18488e-09,0.0082
4.724,5.57191e-10,0.0106
4.966,5.29018e-10,0.011
5.22,5.21278e-10,0.0111
5.488,5.22614e-10,0.0106
5.77,5.28882e-10,0.0106
6.065,5.43084e-10,0.0101
6.376,5.7026e-10,0.0109
6.592,3.90786e-10,0.0119
6.703,2.08008e-10,0.0182
7.047,6.35781e-10,0.0096
7.408,6.6502e-10,0.009
7.788,6.769e-10,0.0087
8.187,7.09353e-10,0.0086
8.607,7.53101e-10,0.008
9.048,8.16208e-10,0.0075
9.512,8.54396e-10,0.0077
10.0,1.12033e-09,0.0064
10.51,1.87537e-09,0.0053
11.05,2.12078e-09,0.0045
11.62,2.29145e-09,0.0042
12.21,2.37575e-09,0.0042
12.52,1.13759e-09,0.0058
12.84,1.1317e-09,0.0057
13.5,2.17117e-09,0.0041
13.84,9.35842e-10,0.006
14.19,1.77248e-10,0.0134
14.55,0.0,0.0
14.92,0.0,0.0
15.68,0.0,0.0
16.49,0.0,0.0
16.9,0.0,0.0
17.33,0.0,0.0
19.64,0.0,0.0
