Energy,Value,Error
1e-07,2.3210579055664694e-11,0.022
4.14e-07,4.742035598103635e-10,0.0124
5.316e-07,1.012193351392073e-09,0.0172
6.826e-07,1.2986600048290078e-09,0.0159
8.764e-07,1.6150143346890843e-09,0.0156
1.125e-06,2.065697053533845e-09,0.014
1.445e-06,2.521640896441698e-09,0.0112
1.855e-06,3.109305717467904e-09,0.0106
2.382e-06,3.895170989319972e-09,0.0097
3.059e-06,4.818195448502108e-09,0.0085
3.928e-06,5.92179743203306e-09,0.0075
5.043e-06,7.271079072192209e-09,0.0068
6.476e-06,8.98473808236443e-09,0.0066
8.315e-06,1.1118384471711476e-08,0.0055
1.068e-05,1.3709945294759329e-08,0.0049
1.371e-05,1.6728270278660885e-08,0.0048
1.76e-05,2.0449134402615416e-08,0.0041
2.26e-05,2.4869766146498426e-08,0.0037
2.902e-05,3.0279759510541396e-08,0.0033
3.727e-05,3.666675824031977e-08,0.003
4.785e-05,4.431044285107155e-08,0.0028
6.144e-05,5.3603350364770834e-08,0.0026
7.889e-05,6.428610016997017e-08,0.0023
0.0001013,7.685738250000026e-08,0.0021
0.0001301,9.153335846772526e-08,0.0019
0.000167,1.0852638740145861e-07,0.0018
0.0002145,1.2755720547405328e-07,0.0016
0.0002754,1.4889711559253375e-07,0.0015
0.0003536,1.7293069667829065e-07,0.0014
0.000454,1.9840046385656124e-07,0.0013
0.0005829,2.2601252798959892e-07,0.0012
0.0007485,2.5368922131686314e-07,0.0011
0.0009611,2.8220300711666336e-07,0.0011
0.001234,3.089185298133109e-07,0.001
0.001585,3.3582147140195354e-07,0.001
0.002035,3.671072858392567e-07,0.0009
0.002249,3.9549512660878594e-07,0.0014
0.002485,4.2131846490736785e-07,0.0013
0.002613,4.4602903183647676e-07,0.0018
0.002747,4.6595888881219963e-07,0.0018
0.003035,5.122895336805716e-07,0.0012
0.003355,6.222773817505202e-07,0.0011
0.003707,1.1434667809058424e-06,0.0008
0.004307,2.9627909961658632e-06,0.0003
0.005531,6.577697873274307e-07,0.0007
0.007102,7.856514766485511e-07,0.0006
0.009119,8.671164859427263e-07,0.0006
0.01059,1.268177776522629e-06,0.0006
0.01171,1.8531822053411021e-06,0.0006
0.01503,8.119668226309528e-06,0.0002
0.0193,2.316944736167584e-05,0.0001
0.02187,2.810678533981231e-06,0.0005
0.02358,3.857521179103583e-06,0.0006
0.02418,4.19390334582196e-06,0.0009
0.02479,4.330971774404647e-06,0.0009
0.02606,4.569143311275593e-06,0.0006
0.027,4.343663655330732e-06,0.0008
0.0285,5.065620047882349e-06,0.0005
0.03183,5.556672948414873e-06,0.0004
0.03431,6.580417039876987e-06,0.0004
0.04087,8.997628213997641e-06,0.0002
0.04631,1.3314967917087127e-06,0.0008
0.05248,3.7851204214392957e-06,0.0004
0.05656,4.133010665910212e-06,0.0005
0.06738,5.097425230897584e-06,0.0003
0.07202,2.4170208102920564e-05,0.0002
0.0795,4.776053954478227e-06,0.0004
0.0825,4.481217638325848e-06,0.0007
0.08652,5.485072871356174e-06,0.0006
0.09804,6.399602172022225e-06,0.0003
0.1111,6.561433726089754e-06,0.0003
0.1168,1.2023874841987239e-05,0.0003
0.1228,7.74648507977413e-06,0.0005
0.1291,8.851499153347411e-06,0.0004
0.1357,1.2381830149691433e-05,0.0003
0.1426,1.173965544293989e-05,0.0004
0.15,2.152068712305011e-05,0.0002
0.1576,1.2399826944229123e-05,0.0003
0.1657,7.916239405003971e-06,0.0004
0.1742,9.386380530518984e-06,0.0004
0.1832,1.1178339317867419e-05,0.0004
0.1925,1.1316720751627831e-05,0.0004
0.2024,1.1488544070568169e-05,0.0004
0.2128,1.1659989585614815e-05,0.0004
0.2237,1.1732922893721301e-05,0.0004
0.2352,1.1812246058431468e-05,0.0004
0.2472,1.204135496108276e-05,0.0004
0.2732,1.2121623959924613e-05,0.0003
0.2872,1.215456790747886e-05,0.0004
0.2945,1.2196094679425502e-05,0.0005
0.2972,1.2197153397742153e-05,0.0008
0.2985,1.2195128128795816e-05,0.0013
0.302,1.2185808508602739e-05,0.0007
0.3337,1.2008872174945077e-05,0.0003
0.3688,1.1603295313758972e-05,0.0003
0.3877,1.1197551820365642e-05,0.0004
0.4076,9.000197583901236e-06,0.0004
0.4505,6.286517807848923e-06,0.0004
0.4979,6.367518072569602e-06,0.0004
0.5234,6.3973148742810465e-06,0.0005
0.5502,6.396605771287531e-06,0.0005
0.5784,6.40191135710283e-06,0.0005
0.6081,6.409675819366607e-06,0.0005
0.6393,6.411298044825386e-06,0.0005
0.6721,6.412707699809985e-06,0.0005
0.7065,6.4159707276230735e-06,0.0005
0.7427,6.381017181338652e-06,0.0005
0.7808,6.360845444272362e-06,0.0005
0.8209,6.33240139429599e-06,0.0005
0.8629,6.292137603519657e-06,0.0005
0.9072,6.275711593270725e-06,0.0005
0.9617,6.274158245706647e-06,0.0005
1.003,6.299503229245448e-06,0.0006
1.108,6.239596879474416e-06,0.0004
1.165,6.128636944706986e-06,0.0005
1.225,6.038619424754496e-06,0.0005
1.287,5.879174903694284e-06,0.0005
1.353,5.586455718421869e-06,0.0005
1.423,5.254984003228112e-06,0.0005
1.496,4.877331571471477e-06,0.0006
1.572,4.40335426043424e-06,0.0006
1.653,3.842157521968894e-06,0.0006
1.738,3.2478576158508085e-06,0.0007
1.827,2.6293620585966703e-06,0.0007
1.921,2.06463520081174e-06,0.0009
2.019,1.6310526767280591e-06,0.001
2.122,1.2690431420741055e-06,0.0011
2.231,9.334095233636168e-07,0.0012
2.307,7.022316329004183e-07,0.0017
2.346,6.14217408221321e-07,0.0026
2.365,5.861357227289178e-07,0.0038
2.385,5.583402004475671e-07,0.0038
2.466,5.179158864431468e-07,0.002
2.592,4.593840966882667e-07,0.0017
2.725,4.034501360692492e-07,0.0019
2.865,3.4495263250582494e-07,0.002
3.012,2.9968846542857183e-07,0.0021
3.166,2.7037589933372486e-07,0.0022
3.329,2.390176022350916e-07,0.0023
3.679,1.963118222519277e-07,0.002
4.066,1.496209624028956e-07,0.0021
4.493,1.3574980778051523e-07,0.0022
4.724,1.3454380989357003e-07,0.0032
4.966,1.335386659046112e-07,0.0032
5.22,1.3588835383183926e-07,0.003
5.488,1.404398472228e-07,0.0029
5.77,1.4743058940632613e-07,0.0028
6.065,1.5544840163076484e-07,0.0027
6.376,1.6120836825672775e-07,0.0026
6.592,1.6697487271410697e-07,0.0031
6.703,1.6992411781562878e-07,0.0043
7.047,1.7836942136024565e-07,0.0025
7.408,1.8697557851539924e-07,0.0024
7.788,1.9951126992017524e-07,0.0023
8.187,2.188720265997448e-07,0.0022
8.607,2.3765950718713685e-07,0.0021
9.048,2.516474915239737e-07,0.0019
9.512,2.6891395524103825e-07,0.0021
10.0,3.370574719422042e-07,0.0017
10.51,5.696845251285939e-07,0.0012
11.05,6.169999804959799e-07,0.0012
11.62,6.610093283877874e-07,0.0011
12.21,6.886835541084608e-07,0.0011
12.52,7.174275831192231e-07,0.0015
12.84,7.325639663300385e-07,0.0014
13.5,7.548840420169503e-07,0.001
13.84,7.332652221925892e-07,0.0014
14.19,2.0500436839269134e-07,0.0025
14.55,0.0,0.0
14.92,0.0,0.0
15.68,0.0,0.0
16.49,0.0,0.0
16.9,0.0,0.0
17.33,0.0,0.0
19.64,0.0,0.0
