Energy,Value,Error
1e-07,0.0,0.0
4.14e-07,5.93012e-12,0.0866
5.316e-07,8.04511e-12,0.0612
6.826e-07,1.4922e-11,0.0432
8.764e-07,2.94555e-11,0.0306
1.125e-06,5.10628e-11,0.0237
1.445e-06,9.06722e-11,0.0178
1.855e-06,1.46064e-10,0.0152
2.382e-06,2.31617e-10,0.0111
3.059e-06,3.54095e-10,0.0095
3.928e-06,5.38338e-10,0.0079
5.043e-06,7.71298e-10,0.0069
6.476e-06,1.07893e-09,0.0056
8.315e-06,1.47907e-09,0.0046
1.068e-05,2.01895e-09,0.0041
1.371e-05,2.67086e-09,0.0037
1.76e-05,3.48814e-09,0.0033
2.26e-05,4.50834e-09,0.0031
2.902e-05,5.72228e-09,0.0028
3.727e-05,7.13316e-09,0.0025
4.785e-05,8.88543e-09,0.0024
6.144e-05,1.08942e-08,0.0022
7.889e-05,1.32889e-08,0.0021
0.0001013,1.61926e-08,0.0018
0.0001301,1.95234e-08,0.0017
0.000167,2.33815e-08,0.0016
0.0002145,2.80981e-08,0.0015
0.0002754,3.36084e-08,0.0013
0.0003536,4.03115e-08,0.0012
0.000454,4.86437e-08,0.0011
0.0005829,5.88135e-08,0.001
0.0007485,7.13982e-08,0.0009
0.0009611,8.61476e-08,0.0008
0.001234,1.01182e-07,0.0008
0.001585,1.09524e-07,0.0007
0.002035,9.60347e-08,0.0007
0.002249,2.7054e-08,0.0014
0.002485,1.6822e-08,0.0018
0.002613,4.34441e-09,0.0036
0.002747,2.10828e-09,0.0057
0.003035,7.84005e-10,0.009
0.003355,2.95819e-10,0.02
0.003707,3.75585e-09,0.0044
0.004307,2.44214e-08,0.0017
0.005531,1.66936e-07,0.0006
0.007102,1.20102e-06,0.0002
0.009119,3.20246e-06,0.0001
0.01059,6.6945e-07,0.0003
0.01171,2.69081e-06,0.0001
0.01503,1.25705e-06,0.0002
0.0193,1.41137e-06,0.0002
0.02187,3.30728e-06,0.0001
0.02358,2.97645e-06,0.0001
0.02418,1.4575e-06,0.0002
0.02479,2.10572e-06,0.0001
0.02606,2.50283e-06,0.0001
0.027,8.1573e-08,0.0009
0.0285,3.8981e-08,0.0017
0.03183,1.07263e-06,0.0002
0.03431,2.08758e-07,0.0006
0.04087,1.09447e-06,0.0002
0.04631,6.10529e-07,0.0003
0.05248,4.79387e-07,0.0004
0.05656,6.06374e-07,0.0003
0.06738,1.42706e-06,0.0002
0.07202,1.26519e-06,0.0002
0.0795,1.95907e-07,0.0006
0.0825,6.77071e-08,0.0011
0.08652,8.95089e-08,0.0009
0.09804,2.46742e-07,0.0006
0.1111,2.60507e-07,0.0005
0.1168,1.06268e-07,0.0009
0.1228,1.07701e-07,0.0008
0.1291,1.08651e-07,0.0008
0.1357,1.09031e-07,0.0008
0.1426,1.09444e-07,0.0008
0.15,1.1207e-07,0.0008
0.1576,1.08581e-07,0.0008
0.1657,1.07157e-07,0.0009
0.1742,1.04247e-07,0.0009
0.1832,1.04063e-07,0.0008
0.1925,1.04222e-07,0.0009
0.2024,1.10072e-07,0.0009
0.2128,1.15064e-07,0.0008
0.2237,1.20094e-07,0.0008
0.2352,1.26018e-07,0.0008
0.2472,1.31572e-07,0.0007
0.2732,2.83557e-07,0.0005
0.2872,1.50974e-07,0.0007
0.2945,7.86252e-08,0.001
0.2972,2.90174e-08,0.0016
0.2985,1.39465e-08,0.0022
0.302,3.75588e-08,0.0014
0.3337,3.35491e-07,0.0005
0.3688,3.63037e-07,0.0004
0.3877,1.90367e-07,0.0006
0.4076,1.96656e-07,0.0006
0.4505,4.06847e-07,0.0004
0.4979,4.20739e-07,0.0004
0.5234,2.11566e-07,0.0006
0.5502,2.10431e-07,0.0006
0.5784,2.08376e-07,0.0006
0.6081,2.05845e-07,0.0006
0.6393,2.01476e-07,0.0006
0.6721,1.95952e-07,0.0006
0.7065,1.89028e-07,0.0006
0.7427,1.81387e-07,0.0006
0.7808,1.72345e-07,0.0006
0.8209,1.63139e-07,0.0006
0.8629,1.5219e-07,0.0007
0.9072,1.42426e-07,0.0007
0.9617,1.51841e-07,0.0006
1.003,9.97276e-08,0.0008
1.108,2.06338e-07,0.0005
1.165,8.87028e-08,0.0008
1.225,7.9202e-08,0.0009
1.287,6.86096e-08,0.0009
1.353,6.08392e-08,0.001
1.423,5.38271e-08,0.001
1.496,4.70059e-08,0.0011
1.572,4.16825e-08,0.0012
1.653,3.77071e-08,0.0013
1.738,3.35108e-08,0.0013
1.827,3.0257e-08,0.0014
1.921,2.74299e-08,0.0014
2.019,2.4561e-08,0.0015
2.122,2.22723e-08,0.0016
2.231,2.02439e-08,0.0018
2.307,1.22274e-08,0.0021
2.346,5.73977e-09,0.003
2.365,2.68453e-09,0.0044
2.385,2.74784e-09,0.0045
2.466,1.04533e-08,0.0023
2.592,1.4351e-08,0.002
2.725,1.32204e-08,0.002
2.865,1.23883e-08,0.0021
3.012,1.18202e-08,0.0021
3.166,1.13996e-08,0.0022
3.329,1.11732e-08,0.0022
3.679,2.13451e-08,0.0016
4.066,2.09405e-08,0.0015
4.493,2.09294e-08,0.0015
4.724,1.05524e-08,0.0021
4.966,1.05762e-08,0.002
5.22,1.06088e-08,0.002
5.488,1.05767e-08,0.002
5.77,1.04916e-08,0.0019
6.065,1.04402e-08,0.0019
6.376,1.03105e-08,0.0019
6.592,6.80593e-09,0.0023
6.703,3.38219e-09,0.0033
7.047,1.011e-08,0.0019
7.408,9.94378e-09,0.0019
7.788,9.80471e-09,0.0019
8.187,9.65486e-09,0.0019
8.607,9.70723e-09,0.0019
9.048,9.82654e-09,0.0018
9.512,1.01488e-08,0.0018
10.0,1.26848e-08,0.0016
10.51,2.07736e-08,0.0012
11.05,2.23208e-08,0.0012
11.62,2.45743e-08,0.0011
12.21,2.67718e-08,0.0011
12.52,1.46332e-08,0.0014
12.84,1.53966e-08,0.0014
13.5,3.17913e-08,0.001
13.84,1.43519e-08,0.0014
14.19,3.96973e-09,0.0026
14.55,0.0,0.0
14.92,0.0,0.0
15.68,0.0,0.0
16.49,0.0,0.0
16.9,0.0,0.0
17.33,0.0,0.0
19.64,0.0,0.0
