Energy,Value,Error
1e-07,0.0,0.0
4.14e-07,3.99006e-14,0.6029
5.316e-07,9.06519e-14,0.3861
6.826e-07,3.43049e-13,0.2493
8.764e-07,8.11973e-13,0.1699
1.125e-06,2.19832e-12,0.1141
1.445e-06,4.15953e-12,0.0792
1.855e-06,8.66817e-12,0.0704
2.382e-06,1.63677e-11,0.0429
3.059e-06,2.95591e-11,0.0324
3.928e-06,5.43689e-11,0.0268
5.043e-06,8.61573e-11,0.0177
6.476e-06,1.50631e-10,0.0158
8.315e-06,2.32339e-10,0.0112
1.068e-05,3.71843e-10,0.0094
1.371e-05,5.41124e-10,0.0074
1.76e-05,7.91313e-10,0.0065
2.26e-05,1.11892e-09,0.0064
2.902e-05,1.51416e-09,0.005
3.727e-05,2.02302e-09,0.0043
4.785e-05,2.62488e-09,0.0038
6.144e-05,3.35167e-09,0.0035
7.889e-05,4.19065e-09,0.0032
0.0001013,5.16282e-09,0.0034
0.0001301,6.20318e-09,0.0029
0.000167,7.33996e-09,0.0027
0.0002145,8.61498e-09,0.0026
0.0002754,9.86552e-09,0.0025
0.0003536,1.12681e-08,0.0023
0.000454,1.27201e-08,0.0024
0.0005829,1.43188e-08,0.0021
0.0007485,1.60651e-08,0.002
0.0009611,1.81593e-08,0.0019
0.001234,2.08557e-08,0.0017
0.001585,2.45787e-08,0.0016
0.002035,3.00768e-08,0.0014
0.002249,1.42259e-08,0.0019
0.002485,1.58666e-08,0.0017
0.002613,8.66746e-09,0.0022
0.002747,9.11914e-09,0.0021
0.003035,1.97039e-08,0.0013
0.003355,2.22106e-08,0.0012
0.003707,9.29529e-08,0.0006
0.004307,2.4455e-06,0.0001
0.005531,9.96759e-07,0.0002
0.007102,4.14602e-09,0.0045
0.009119,7.92796e-11,0.0294
0.01059,3.7024e-10,0.0201
0.01171,6.18964e-10,0.012
0.01503,4.29559e-09,0.0051
0.0193,1.11636e-08,0.003
0.02187,9.84475e-09,0.0032
0.02358,7.83409e-09,0.0034
0.02418,3.07744e-09,0.0056
0.02479,3.28191e-09,0.0055
0.02606,7.3251e-09,0.0035
0.027,5.93355e-09,0.004
0.0285,1.03479e-08,0.0029
0.03183,2.71394e-08,0.0018
0.03431,2.61812e-08,0.0017
0.04087,1.13208e-07,0.0008
0.04631,3.89107e-07,0.0004
0.05248,2.51417e-06,0.0001
0.05656,2.95367e-09,0.0063
0.06738,4.47234e-07,0.0004
0.07202,1.34955e-06,0.0002
0.0795,9.23944e-09,0.0034
0.0825,1.27876e-08,0.0026
0.08652,2.84321e-08,0.0017
0.09804,4.5418e-07,0.0003
0.1111,9.03515e-08,0.0007
0.1168,2.53051e-07,0.0004
0.1228,6.81252e-07,0.0002
0.1291,1.76532e-07,0.0005
0.1357,3.76824e-08,0.0014
0.1426,1.31567e-06,0.0002
0.15,1.05054e-07,0.0008
0.1576,2.08637e-06,0.0001
0.1657,1.067e-06,0.0002
0.1742,9.70233e-08,0.0009
0.1832,3.7307e-07,0.0003
0.1925,2.05721e-08,0.0021
0.2024,1.4762e-08,0.0026
0.2128,2.23278e-08,0.0021
0.2237,3.27105e-07,0.0004
0.2352,8.64038e-07,0.0002
0.2472,3.31493e-07,0.0004
0.2732,8.88097e-08,0.001
0.2872,2.08024e-07,0.0006
0.2945,7.00317e-07,0.0003
0.2972,3.19774e-07,0.0004
0.2985,3.99633e-07,0.0003
0.302,1.4481e-06,0.0002
0.3337,1.35306e-06,0.0002
0.3688,5.57814e-07,0.0003
0.3877,5.04698e-07,0.0004
0.4076,3.24274e-06,0.0001
0.4505,5.42699e-07,0.0003
0.4979,9.62255e-07,0.0002
0.5234,6.98159e-07,0.0002
0.5502,6.28776e-08,0.0012
0.5784,1.53221e-07,0.0006
0.6081,2.03178e-07,0.0005
0.6393,6.63739e-08,0.0011
0.6721,2.11126e-07,0.0005
0.7065,1.23429e-07,0.0007
0.7427,2.66674e-07,0.0004
0.7808,7.88001e-08,0.0009
0.8209,3.48651e-07,0.0004
0.8629,2.46559e-07,0.0004
0.9072,1.88018e-07,0.0005
0.9617,5.8224e-08,0.001
1.003,6.39777e-08,0.0008
1.108,5.36848e-08,0.001
1.165,2.44323e-08,0.0014
1.225,2.11333e-08,0.0015
1.287,1.74075e-08,0.0016
1.353,1.43055e-08,0.0018
1.423,1.10485e-08,0.0019
1.496,7.23598e-09,0.0024
1.572,5.12822e-09,0.0028
1.653,4.15534e-09,0.0032
1.738,3.68347e-09,0.0032
1.827,3.45365e-09,0.0035
1.921,3.16497e-09,0.0035
2.019,2.80125e-09,0.0037
2.122,2.49824e-09,0.0037
2.231,2.2778e-09,0.0039
2.307,1.41558e-09,0.005
2.346,6.74814e-10,0.0072
2.365,3.12988e-10,0.0102
2.385,3.23363e-10,0.0103
2.466,1.22447e-09,0.0056
2.592,1.68382e-09,0.0045
2.725,1.51257e-09,0.0047
2.865,1.35787e-09,0.0048
3.012,1.23196e-09,0.005
3.166,1.10937e-09,0.0053
3.329,1.03097e-09,0.0054
3.679,1.75649e-09,0.0042
4.066,1.45882e-09,0.0045
4.493,1.24765e-09,0.0048
4.724,5.94615e-10,0.0068
4.966,6.01132e-10,0.0067
5.22,6.02599e-10,0.0065
5.488,6.18029e-10,0.007
5.77,6.18624e-10,0.0063
6.065,6.31388e-10,0.0064
6.376,6.68249e-10,0.006
6.592,4.67084e-10,0.0071
6.703,2.46117e-10,0.01
7.047,7.49352e-10,0.0054
7.408,7.83606e-10,0.0052
7.788,8.34895e-10,0.0051
8.187,8.80341e-10,0.0049
8.607,9.62703e-10,0.0045
9.048,1.03278e-09,0.0044
9.512,1.10929e-09,0.0043
10.0,1.43128e-09,0.0037
10.51,2.00138e-09,0.003
11.05,2.01361e-09,0.003
11.62,2.21657e-09,0.0029
12.21,2.412e-09,0.0028
12.52,1.28246e-09,0.0039
12.84,1.31442e-09,0.0038
13.5,2.70451e-09,0.0027
13.84,1.22067e-09,0.004
14.19,2.51718e-10,0.0094
14.55,0.0,0.0
14.92,0.0,0.0
15.68,0.0,0.0
16.49,0.0,0.0
16.9,0.0,0.0
17.33,0.0,0.0
19.64,0.0,0.0
