Energy,Value,Error
1e-07,7.959647928943689e-15,0.5137
4.14e-07,4.8743369687483235e-12,0.0799
5.316e-07,3.665068317889787e-11,0.0775
6.826e-07,7.020462680715233e-11,0.0556
8.764e-07,1.1685679914892319e-10,0.0438
1.125e-06,2.0539677152548912e-10,0.0328
1.445e-06,2.7861476771012866e-10,0.031
1.855e-06,3.49406342304357e-10,0.0277
2.382e-06,4.580937995047417e-10,0.0233
3.059e-06,5.896838642431086e-10,0.0215
3.928e-06,7.544962628065298e-10,0.0189
5.043e-06,1.0125394723672098e-09,0.0177
6.476e-06,1.2439569993471107e-09,0.015
8.315e-06,1.5607097195986899e-09,0.0129
1.068e-05,1.997749039588243e-09,0.0153
1.371e-05,2.399001475695289e-09,0.0107
1.76e-05,2.9231534472495145e-09,0.0101
2.26e-05,3.3309564284737276e-09,0.0105
2.902e-05,3.3865612597455338e-09,0.0088
3.727e-05,2.909328202103359e-09,0.009
4.785e-05,1.54367011520546e-09,0.0117
6.144e-05,1.803732358956937e-10,0.0331
7.889e-05,8.68474968496415e-09,0.0051
0.0001013,1.9469952974588707e-08,0.0039
0.0001301,2.6371712068752632e-08,0.0035
0.000167,3.4181887171334974e-08,0.003
0.0002145,4.38106363321559e-08,0.0027
0.0002754,5.5019940247987636e-08,0.0023
0.0003536,6.873121589393095e-08,0.0021
0.000454,8.462260076298136e-08,0.0019
0.0005829,1.0156033019430752e-07,0.0017
0.0007485,1.4374765420661507e-07,0.0015
0.0009611,1.7875961027276344e-07,0.0013
0.001234,2.611226272257086e-07,0.0011
0.001585,3.338460274829363e-07,0.001
0.002035,4.1775203199440445e-07,0.0008
0.002249,4.683125146008095e-07,0.0013
0.002485,3.5961502830149794e-07,0.0014
0.002613,5.6664704957885e-07,0.0017
0.002747,6.066675635071964e-07,0.0016
0.003035,6.518654456142635e-07,0.0011
0.003355,7.099327057624461e-07,0.001
0.003707,7.227008738850988e-07,0.001
0.004307,9.134329022318529e-07,0.0007
0.005531,1.091177572934598e-06,0.0005
0.007102,1.4153198221597707e-06,0.0005
0.009119,1.8138061554638565e-06,0.0004
0.01059,2.041905571578994e-06,0.0005
0.01171,2.468840635114605e-06,0.0006
0.01503,2.79513201615594e-06,0.0003
0.0193,3.6011444926476496e-06,0.0003
0.02187,4.277896484960325e-06,0.0004
0.02358,5.052198965813902e-06,0.0004
0.02418,4.8850337833200074e-06,0.0008
0.02479,3.7130826147451826e-06,0.0009
0.02606,4.625747206861222e-06,0.0006
0.027,5.4269339018469225e-06,0.0006
0.0285,5.670182280452087e-06,0.0005
0.03183,5.782942937555932e-06,0.0003
0.03431,6.157119567925766e-06,0.0004
0.04087,6.638567174851025e-06,0.0003
0.04631,8.358406170013801e-06,0.0003
0.05248,8.220958451223175e-06,0.0003
0.05656,8.745493203034835e-06,0.0003
0.06738,1.1203555497764152e-05,0.0002
0.07202,1.1677930127689728e-05,0.0003
0.0795,1.1154283110004844e-05,0.0002
0.0825,7.0212762197895756e-06,0.0005
0.08652,6.421737893252276e-06,0.0005
0.09804,6.422226179700804e-06,0.0003
0.1111,7.2306825178474235e-06,0.0003
0.1168,8.068395915589785e-06,0.0004
0.1228,8.62563324268336e-06,0.0004
0.1291,9.226552005291352e-06,0.0004
0.1357,9.896073689257453e-06,0.0004
0.1426,1.0619546042566026e-05,0.0004
0.15,1.1437429757324058e-05,0.0004
0.1576,1.231197645865029e-05,0.0004
0.1657,1.3264796900929836e-05,0.0003
0.1742,1.4269585256561233e-05,0.0003
0.1832,1.53339034656887e-05,0.0003
0.1925,1.632749452635739e-05,0.0003
0.2024,1.6177397794739302e-05,0.0003
0.2128,1.3882860641482411e-05,0.0003
0.2237,1.4472492005275994e-05,0.0003
0.2352,1.5095307280115612e-05,0.0003
0.2472,1.5760353874898702e-05,0.0003
0.2732,1.68037242065714e-05,0.0002
0.2872,1.7920304277194205e-05,0.0003
0.2945,1.8502068931539506e-05,0.0004
0.2972,1.8789083940869025e-05,0.0007
0.2985,1.887158566074356e-05,0.001
0.302,1.898596507544802e-05,0.0006
0.3337,1.971249549929812e-05,0.0002
0.3688,2.0995358317645396e-05,0.0002
0.3877,2.1926731496200096e-05,0.0003
0.4076,2.2493501575392683e-05,0.0003
0.4505,2.3135394408756317e-05,0.0002
0.4979,2.3737825570576765e-05,0.0002
0.5234,2.391247326530809e-05,0.0003
0.5502,2.381675289540409e-05,0.0003
0.5784,2.353381443434095e-05,0.0003
0.6081,2.313351448683898e-05,0.0003
0.6393,2.2508875337587196e-05,0.0003
0.6721,2.1680555891926985e-05,0.0003
0.7065,2.0626626681948158e-05,0.0003
0.7427,1.9294725604530882e-05,0.0003
0.7808,1.7716689530952655e-05,0.0003
0.8209,1.5954769854776282e-05,0.0003
0.8629,1.4074068981549735e-05,0.0003
0.9072,1.2143566250493625e-05,0.0004
0.9617,1.014641529605909e-05,0.0004
1.003,8.44392135603287e-06,0.0005
1.108,6.3064804452592495e-06,0.0004
1.165,4.139441346211422e-06,0.0006
1.225,3.139680665237984e-06,0.0007
1.287,2.610612664756181e-06,0.0008
1.353,2.2773853667150665e-06,0.0008
1.423,2.0413350000052886e-06,0.0009
1.496,1.845964487961019e-06,0.0009
1.572,1.7083367028654802e-06,0.0009
1.653,1.5950480840547216e-06,0.001
1.738,1.4814389217700268e-06,0.001
1.827,1.378102817634371e-06,0.001
1.921,1.2727611761939471e-06,0.0011
2.019,1.1651694110004536e-06,0.0011
2.122,1.0455335482397486e-06,0.0012
2.231,8.848697446624578e-07,0.0013
2.307,7.731133417162676e-07,0.0016
2.346,7.168375165447618e-07,0.0024
2.365,6.958456397177387e-07,0.0036
2.385,6.747370750916853e-07,0.0034
2.466,6.392185388927564e-07,0.0018
2.592,5.715702034205055e-07,0.0015
2.725,5.014184073299758e-07,0.0016
2.865,4.3967932679333304e-07,0.0017
3.012,3.878510592949463e-07,0.0018
3.166,3.463656011446571e-07,0.0019
3.329,3.154970998584423e-07,0.0019
3.679,2.804979051800261e-07,0.0015
4.066,2.3542888278503054e-07,0.0016
4.493,1.993933264436311e-07,0.0017
4.724,1.7958495715283381e-07,0.0025
4.966,1.7261467332615694e-07,0.0026
5.22,1.727748786944315e-07,0.0025
5.488,1.756676023903528e-07,0.0025
5.77,1.7858916841298294e-07,0.0025
6.065,1.8181894072026673e-07,0.0025
6.376,1.894909486001117e-07,0.0024
6.592,1.9690717119960494e-07,0.0029
6.703,2.0288896309725077e-07,0.0039
7.047,2.1074671170369548e-07,0.0022
7.408,2.261637023076487e-07,0.0021
7.788,2.431672728729787e-07,0.0021
8.187,2.566276313199027e-07,0.002
8.607,2.7115255328945793e-07,0.0019
9.048,2.9476716301563153e-07,0.0018
9.512,3.0846971136683834e-07,0.0018
10.0,3.7589544397204994e-07,0.0018
10.51,6.525941866024405e-07,0.0012
11.05,6.931667067554948e-07,0.0011
11.62,7.226308976242631e-07,0.0011
12.21,7.702583763041699e-07,0.001
12.52,8.091391692642102e-07,0.0014
12.84,8.197105656867316e-07,0.0014
13.5,8.367084837814236e-07,0.001
13.84,8.43009561263856e-07,0.0014
14.19,2.567214350210142e-07,0.0023
14.55,0.0,0.0
14.92,0.0,0.0
15.68,0.0,0.0
16.49,0.0,0.0
16.9,0.0,0.0
17.33,0.0,0.0
19.64,0.0,0.0
