Energy,Value,Error
1e-07,5.426683269173893e-12,0.0271
4.14e-07,5.860072276749712e-10,0.0064
5.316e-07,1.839645437775493e-09,0.0083
6.826e-07,2.5106821469572042e-09,0.0081
8.764e-07,3.3461248055544883e-09,0.0062
1.125e-06,4.330564598239435e-09,0.0052
1.445e-06,5.606043308275221e-09,0.0048
1.855e-06,6.990000529595556e-09,0.0044
2.382e-06,8.61379826595822e-09,0.0042
3.059e-06,1.0447112265801179e-08,0.0041
3.928e-06,1.2397341114109542e-08,0.0037
5.043e-06,1.4769635747937534e-08,0.0036
6.476e-06,1.7093593149143106e-08,0.0034
8.315e-06,1.974727147291531e-08,0.0033
1.068e-05,2.2731816072508673e-08,0.0032
1.371e-05,2.5465434477959165e-08,0.003
1.76e-05,2.849598779790928e-08,0.0029
2.26e-05,3.1959559708535223e-08,0.0028
2.902e-05,3.527357356146027e-08,0.0026
3.727e-05,3.866237408014952e-08,0.0026
4.785e-05,4.2027769121595444e-08,0.0025
6.144e-05,4.56274304008658e-08,0.0024
7.889e-05,4.929290364595613e-08,0.0024
0.0001013,5.283925049429424e-08,0.0023
0.0001301,5.6344698602002246e-08,0.0022
0.000167,5.980725887453694e-08,0.0022
0.0002145,6.37166809877768e-08,0.0021
0.0002754,6.754380598052994e-08,0.0021
0.0003536,7.876075299797233e-08,0.002
0.000454,1.0966392546275133e-07,0.0018
0.0005829,1.1601144432056179e-07,0.0017
0.0007485,1.2221363982331285e-07,0.0016
0.0009611,1.2904585355649443e-07,0.0017
0.001234,1.3534730546580004e-07,0.0016
0.001585,1.4282759146818122e-07,0.0015
0.002035,1.5215671730165062e-07,0.0014
0.002249,1.5983021624168747e-07,0.0022
0.002485,1.659795587488439e-07,0.0021
0.002613,1.726050961629381e-07,0.0029
0.002747,1.7750940499984191e-07,0.003
0.003035,1.8608550242145597e-07,0.002
0.003355,2.0372934484774023e-07,0.0019
0.003707,2.430822847052376e-07,0.0017
0.004307,6.3097941402369e-07,0.0007
0.005531,2.057478595614693e-07,0.0012
0.007102,2.805932415531806e-07,0.001
0.009119,4.51609418866072e-07,0.0007
0.01059,2.0235638811447255e-06,0.0003
0.01171,3.1919065635906355e-07,0.0014
0.01503,9.758337151772531e-06,0.0001
0.0193,7.750716180495154e-06,0.0001
0.02187,4.2120941380546013e-07,0.0014
0.02358,2.1958459057926257e-05,0.0002
0.02418,1.2767606056903481e-05,0.0003
0.02479,1.90013439422925e-08,0.0144
0.02606,1.1967460610222003e-07,0.004
0.027,2.6536085515099905e-07,0.0034
0.0285,4.105888832168342e-07,0.0022
0.03183,6.495534134760888e-07,0.0011
0.03431,9.82344959703418e-07,0.001
0.04087,1.4306401471690523e-06,0.0006
0.04631,6.899238181119503e-06,0.0002
0.05248,1.3955473335592735e-06,0.0007
0.05656,3.797174665859649e-06,0.0005
0.06738,5.131884701798444e-06,0.0002
0.07202,4.944889751033818e-06,0.0004
0.0795,8.559709764958328e-06,0.0002
0.0825,1.6639250545141965e-06,0.0011
0.08652,2.6041826634262442e-06,0.0008
0.09804,9.018883061005032e-06,0.0002
0.1111,4.287780643298581e-06,0.0003
0.1168,1.3641747310058142e-05,0.0003
0.1228,6.410315617100052e-06,0.0004
0.1291,4.8267367216999995e-06,0.0005
0.1357,1.2994514623810244e-05,0.0003
0.1426,7.368196336404666e-06,0.0004
0.15,8.289230964053157e-06,0.0003
0.1576,8.653980974838575e-06,0.0003
0.1657,8.972351202666654e-06,0.0003
0.1742,9.372567475719037e-06,0.0003
0.1832,9.760475933543864e-06,0.0003
0.1925,1.0220567287934383e-05,0.0003
0.2024,1.0615479487187237e-05,0.0003
0.2128,1.0947132534191909e-05,0.0003
0.2237,1.1328823938033737e-05,0.0003
0.2352,1.1735426323682586e-05,0.0003
0.2472,1.215485634096546e-05,0.0003
0.2732,1.2729285056773931e-05,0.0002
0.2872,1.3180106635685819e-05,0.0003
0.2945,1.343632552499957e-05,0.0004
0.2972,1.3571421896277677e-05,0.0006
0.2985,1.3637567565858135e-05,0.0009
0.302,1.3679320881868493e-05,0.0006
0.3337,1.3969892839117658e-05,0.0002
0.3688,1.4433252721234565e-05,0.0002
0.3877,1.4562355875088039e-05,0.0003
0.4076,1.4662770286649772e-05,0.0003
0.4505,1.476869966246252e-05,0.0002
0.4979,1.4778614668989974e-05,0.0002
0.5234,1.452561371565611e-05,0.0003
0.5502,1.4089454404542599e-05,0.0003
0.5784,1.3633651207636468e-05,0.0003
0.6081,1.3117472379992158e-05,0.0003
0.6393,1.239794897425794e-05,0.0003
0.6721,1.1654855254957616e-05,0.0003
0.7065,1.090971454175263e-05,0.0003
0.7427,9.817148094442328e-06,0.0003
0.7808,8.682079386225342e-06,0.0003
0.8209,4.562573266156728e-06,0.0005
0.8629,1.5234808261209858e-06,0.001
0.9072,1.3252364251225832e-06,0.001
0.9617,1.115200980048118e-06,0.0011
1.003,9.276821927585723e-07,0.0014
1.108,6.864349045773025e-07,0.001
1.165,5.277816122962779e-07,0.0016
1.225,4.7084258113545205e-07,0.0018
1.287,4.2543422520213186e-07,0.0018
1.353,3.8936085272327927e-07,0.0019
1.423,3.575086881072863e-07,0.002
1.496,3.3097356442846724e-07,0.002
1.572,3.0566163607521113e-07,0.0021
1.653,2.823968462845166e-07,0.0022
1.738,2.5993749739503754e-07,0.0022
1.827,2.3721546986445396e-07,0.0024
1.921,2.15676085630054e-07,0.0025
2.019,1.9461816349402417e-07,0.0027
2.122,1.7653139874610738e-07,0.0027
2.231,1.598277123062415e-07,0.0028
2.307,1.4945311581813533e-07,0.0035
2.346,1.4323447834728214e-07,0.0054
2.365,1.403424085293234e-07,0.0071
2.385,1.4023698375924198e-07,0.0075
2.466,1.3349310043379584e-07,0.0037
2.592,1.2387991050221948e-07,0.0031
2.725,1.1178139382053675e-07,0.0033
2.865,9.889975467241463e-08,0.0045
3.012,8.682315718310098e-08,0.0038
3.166,7.685745078099424e-08,0.004
3.329,6.901858848679586e-08,0.0042
3.679,6.007971417957235e-08,0.0031
4.066,5.205154601731965e-08,0.0035
4.493,4.629759306200247e-08,0.0036
4.724,4.31376967874388e-08,0.0051
4.966,4.180805924691457e-08,0.0052
5.22,4.098373570575343e-08,0.0055
5.488,4.1203408918993465e-08,0.0051
5.77,4.2342579045804014e-08,0.0055
6.065,4.4164285459392864e-08,0.005
6.376,4.501743858546728e-08,0.0048
6.592,4.6289377224063365e-08,0.0058
6.703,4.689157316307076e-08,0.0078
7.047,4.860330053630698e-08,0.0046
7.408,5.166427825213322e-08,0.0045
7.788,5.443991506724916e-08,0.0042
8.187,5.763053612347171e-08,0.0039
8.607,5.998465435655186e-08,0.0038
9.048,6.503533558572857e-08,0.0036
9.512,7.120256056803034e-08,0.0034
10.0,8.774991157693834e-08,0.0031
10.51,1.3406432552337543e-07,0.0024
11.05,1.4127029640413785e-07,0.0023
11.62,1.4840312538570078e-07,0.0022
12.21,1.591920480104022e-07,0.0021
12.52,1.683430498208266e-07,0.0028
12.84,1.6979639614860005e-07,0.0028
13.5,1.6767526691922955e-07,0.002
13.84,1.6140422421968006e-07,0.0028
14.19,3.86259351344532e-08,0.0056
14.55,0.0,0.0
14.92,0.0,0.0
15.68,0.0,0.0
16.49,0.0,0.0
16.9,0.0,0.0
17.33,0.0,0.0
19.64,0.0,0.0
