Energy,Value,Error
1e-07,5.84588e-11,0.0225
4.14e-07,4.6112e-10,0.0097
5.316e-07,2.0296e-10,0.015
6.826e-07,2.69169e-10,0.014
8.764e-07,3.54024e-10,0.0122
1.125e-06,4.69378e-10,0.011
1.445e-06,6.10534e-10,0.01
1.855e-06,7.79441e-10,0.0088
2.382e-06,1.00608e-09,0.0079
3.059e-06,1.2989e-09,0.007
3.928e-06,1.63614e-09,0.0063
5.043e-06,2.11194e-09,0.0057
6.476e-06,2.6798e-09,0.005
8.315e-06,3.36855e-09,0.0046
1.068e-05,4.32143e-09,0.0041
1.371e-05,5.39922e-09,0.0037
1.76e-05,6.79985e-09,0.0032
2.26e-05,8.52948e-09,0.0029
2.902e-05,1.07965e-08,0.0025
3.727e-05,1.34768e-08,0.0023
4.785e-05,1.69359e-08,0.0021
6.144e-05,2.11812e-08,0.0018
7.889e-05,2.6457e-08,0.0017
0.0001013,3.2935e-08,0.0015
0.0001301,4.12685e-08,0.0013
0.000167,5.10696e-08,0.0012
0.0002145,6.35788e-08,0.0011
0.0002754,7.91439e-08,0.001
0.0003536,9.80512e-08,0.0009
0.000454,1.21593e-07,0.0008
0.0005829,1.50727e-07,0.0007
0.0007485,1.86874e-07,0.0006
0.0009611,2.31104e-07,0.0006
0.001234,2.85624e-07,0.0005
0.001585,3.54011e-07,0.0005
0.002035,4.3791e-07,0.0004
0.002249,2.03061e-07,0.0006
0.002485,2.20898e-07,0.0006
0.002613,1.18431e-07,0.0008
0.002747,1.23143e-07,0.0008
0.003035,2.61775e-07,0.0005
0.003355,2.86669e-07,0.0005
0.003707,3.10348e-07,0.0005
0.004307,5.17957e-07,0.0004
0.005531,1.0172e-06,0.0003
0.007102,1.22591e-06,0.0002
0.009119,1.42598e-06,0.0002
0.01059,9.14062e-07,0.0003
0.01171,6.12137e-07,0.0003
0.01503,1.28453e-06,0.0002
0.0193,4.02163e-07,0.0004
0.02187,2.14904e-08,0.0026
0.02358,6.97939e-08,0.0012
0.02418,4.13168e-08,0.0016
0.02479,5.11443e-08,0.0013
0.02606,1.34331e-07,0.0008
0.027,1.21201e-07,0.0008
0.0285,2.25631e-07,0.0006
0.03183,6.08194e-07,0.0004
0.03431,5.21988e-07,0.0004
0.04087,1.58187e-06,0.0002
0.04631,1.51627e-06,0.0002
0.05248,1.96781e-06,0.0002
0.05656,1.4988e-06,0.0002
0.06738,3.75439e-06,0.0001
0.07202,2.21332e-07,0.0006
0.0795,7.45308e-08,0.0012
0.0825,5.47278e-08,0.0014
0.08652,1.25581e-07,0.0009
0.09804,5.79689e-07,0.0004
0.1111,6.32162e-07,0.0004
0.1168,3.60272e-07,0.0005
0.1228,4.1599e-07,0.0004
0.1291,4.58786e-07,0.0004
0.1357,4.96886e-07,0.0004
0.1426,5.32535e-07,0.0004
0.15,5.82093e-07,0.0003
0.1576,6.03596e-07,0.0003
0.1657,6.45804e-07,0.0003
0.1742,6.75815e-07,0.0003
0.1832,7.15809e-07,0.0003
0.1925,7.46511e-07,0.0003
0.2024,8.03293e-07,0.0003
0.2128,8.07743e-07,0.0003
0.2237,6.21332e-07,0.0003
0.2352,3.02937e-07,0.0005
0.2472,3.02643e-07,0.0005
0.2732,6.13936e-07,0.0003
0.2872,3.08896e-07,0.0005
0.2945,1.55616e-07,0.0007
0.2972,5.66595e-08,0.0011
0.2985,2.71104e-08,0.0016
0.302,7.24066e-08,0.001
0.3337,6.2187e-07,0.0003
0.3688,6.24371e-07,0.0003
0.3877,3.11514e-07,0.0005
0.4076,3.11084e-07,0.0005
0.4505,6.18692e-07,0.0003
0.4979,6.10328e-07,0.0003
0.5234,3.00138e-07,0.0005
0.5502,2.96792e-07,0.0005
0.5784,2.93073e-07,0.0005
0.6081,2.88625e-07,0.0005
0.6393,2.83484e-07,0.0005
0.6721,2.78665e-07,0.0005
0.7065,2.72557e-07,0.0005
0.7427,2.6762e-07,0.0005
0.7808,2.62964e-07,0.0005
0.8209,2.5773e-07,0.0005
0.8629,2.51363e-07,0.0005
0.9072,2.46032e-07,0.0005
0.9617,2.78965e-07,0.0005
1.003,1.95491e-07,0.0006
1.108,4.48274e-07,0.0004
1.165,2.20164e-07,0.0006
1.225,2.16568e-07,0.0006
1.287,2.09016e-07,0.0006
1.353,2.07327e-07,0.0006
1.423,2.05109e-07,0.0006
1.496,1.98427e-07,0.0006
1.572,1.90979e-07,0.0006
1.653,1.87867e-07,0.0006
1.738,1.80855e-07,0.0006
1.827,1.74021e-07,0.0006
1.921,1.69036e-07,0.0006
2.019,1.6239e-07,0.0006
2.122,1.57725e-07,0.0006
2.231,1.54532e-07,0.0006
2.307,1.0098e-07,0.0007
2.346,4.98807e-08,0.0011
2.365,2.38334e-08,0.0015
2.385,2.47406e-08,0.0015
2.466,9.69764e-08,0.0008
2.592,1.41333e-07,0.0006
2.725,1.37867e-07,0.0006
2.865,1.33325e-07,0.0006
3.012,1.27993e-07,0.0006
3.166,1.2249e-07,0.0006
3.329,1.17864e-07,0.0007
3.679,2.19156e-07,0.0005
4.066,1.97767e-07,0.0005
4.493,1.76248e-07,0.0005
4.724,8.14332e-08,0.0007
4.966,7.68215e-08,0.0007
5.22,7.26052e-08,0.0007
5.488,6.87044e-08,0.0007
5.77,6.4688e-08,0.0007
6.065,5.95597e-08,0.0008
6.376,5.59948e-08,0.0008
6.592,3.67944e-08,0.001
6.703,1.83609e-08,0.0014
7.047,5.48671e-08,0.0008
7.408,5.4379e-08,0.0008
7.788,5.39265e-08,0.0008
8.187,5.31411e-08,0.0008
8.607,5.27396e-08,0.0008
9.048,5.25369e-08,0.0008
9.512,5.4723e-08,0.0008
10.0,6.61664e-08,0.0007
10.51,1.1328e-07,0.0005
11.05,1.1874e-07,0.0005
11.62,1.25143e-07,0.0005
12.21,1.29617e-07,0.0005
12.52,6.80508e-08,0.0007
12.84,7.01987e-08,0.0007
13.5,1.40109e-07,0.0005
13.84,6.54309e-08,0.0007
14.19,1.98602e-08,0.0012
14.55,0.0,0.0
14.92,0.0,0.0
15.68,0.0,0.0
16.49,0.0,0.0
16.9,0.0,0.0
17.33,0.0,0.0
19.64,0.0,0.0
total,4.87483e-05,0.0
