Energy,Value,Error
1e-07,1.54107e-12,0.1911
4.14e-07,5.176e-11,0.0227
5.316e-07,4.01309e-11,0.0294
6.826e-07,6.67085e-11,0.021
8.764e-07,9.75257e-11,0.0177
1.125e-06,1.42157e-10,0.0146
1.445e-06,2.0099e-10,0.0125
1.855e-06,2.79301e-10,0.0109
2.382e-06,3.9838e-10,0.0097
3.059e-06,5.33234e-10,0.0087
3.928e-06,7.18319e-10,0.0076
5.043e-06,9.47882e-10,0.0069
6.476e-06,1.23354e-09,0.0061
8.315e-06,1.60283e-09,0.0057
1.068e-05,2.07744e-09,0.0055
1.371e-05,2.62157e-09,0.0048
1.76e-05,3.27383e-09,0.0043
2.26e-05,4.10994e-09,0.0039
2.902e-05,5.10565e-09,0.0037
3.727e-05,6.31027e-09,0.0033
4.785e-05,7.69682e-09,0.003
6.144e-05,9.36137e-09,0.0027
7.889e-05,1.12628e-08,0.0025
0.0001013,1.35754e-08,0.0024
0.0001301,1.6198e-08,0.0022
0.000167,1.91536e-08,0.002
0.0002145,2.25657e-08,0.0018
0.0002754,2.63053e-08,0.0017
0.0003536,3.06387e-08,0.0016
0.000454,3.52712e-08,0.0015
0.0005829,4.04633e-08,0.0014
0.0007485,4.62351e-08,0.0013
0.0009611,5.2415e-08,0.0012
0.001234,5.90969e-08,0.0012
0.001585,6.65249e-08,0.0011
0.002035,7.41556e-08,0.001
0.002249,3.2143e-08,0.0015
0.002485,3.3412e-08,0.0015
0.002613,1.73467e-08,0.002
0.002747,1.75926e-08,0.002
0.003035,3.62452e-08,0.0014
0.003355,3.78977e-08,0.0014
0.003707,3.92318e-08,0.0015
0.004307,6.19258e-08,0.0011
0.005531,1.12413e-07,0.0008
0.007102,1.2195e-07,0.0007
0.009119,1.46969e-07,0.0006
0.01059,6.40291e-07,0.0003
0.01171,9.31197e-08,0.0007
0.01503,1.62907e-07,0.0007
0.0193,3.45136e-07,0.0004
0.02187,1.93177e-07,0.0005
0.02358,1.39644e-07,0.0006
0.02418,4.80394e-08,0.001
0.02479,4.98305e-08,0.001
0.02606,1.03347e-07,0.0007
0.027,7.62937e-08,0.0008
0.0285,1.22056e-07,0.0006
0.03183,2.98922e-07,0.0004
0.03431,4.07912e-07,0.0003
0.04087,2.26308e-06,0.0001
0.04631,1.05344e-06,0.0002
0.05248,4.64381e-08,0.0015
0.05656,1.43439e-06,0.0002
0.06738,1.541e-06,0.0002
0.07202,2.63992e-08,0.0019
0.0795,1.28084e-07,0.0008
0.0825,8.66528e-08,0.0009
0.08652,3.81725e-07,0.0004
0.09804,2.50517e-06,0.0001
0.1111,4.16585e-08,0.0015
0.1168,6.651e-08,0.0011
0.1228,1.03706e-07,0.0009
0.1291,1.88039e-07,0.0006
0.1357,2.24704e-07,0.0006
0.1426,5.55053e-07,0.0003
0.15,1.02348e-06,0.0002
0.1576,2.28716e-06,0.0001
0.1657,4.58018e-06,0.0001
0.1742,1.02592e-06,0.0002
0.1832,4.36501e-08,0.0015
0.1925,1.85196e-08,0.0025
0.2024,6.64211e-08,0.0013
0.2128,1.18684e-07,0.0009
0.2237,1.87152e-07,0.0007
0.2352,2.22879e-07,0.0006
0.2472,2.83793e-07,0.0005
0.2732,1.14589e-06,0.0002
0.2872,7.56747e-07,0.0003
0.2945,9.67664e-07,0.0002
0.2972,1.23012e-07,0.0007
0.2985,8.44702e-08,0.0008
0.302,2.18653e-07,0.0005
0.3337,2.5963e-06,0.0001
0.3688,7.56503e-07,0.0003
0.3877,3.90492e-07,0.0004
0.4076,3.97506e-07,0.0004
0.4505,8.02676e-07,0.0003
0.4979,7.98406e-07,0.0003
0.5234,3.87934e-07,0.0004
0.5502,3.74612e-07,0.0004
0.5784,3.58845e-07,0.0004
0.6081,3.40054e-07,0.0005
0.6393,3.16782e-07,0.0005
0.6721,2.9119e-07,0.0005
0.7065,2.62539e-07,0.0005
0.7427,2.33054e-07,0.0005
0.7808,2.02263e-07,0.0006
0.8209,1.71041e-07,0.0006
0.8629,1.40113e-07,0.0007
0.9072,1.11517e-07,0.0007
0.9617,9.67785e-08,0.0008
1.003,5.58932e-08,0.001
1.108,1.147e-07,0.0007
1.165,5.11685e-08,0.0011
1.225,4.72567e-08,0.0011
1.287,4.30772e-08,0.0012
1.353,4.04814e-08,0.0012
1.423,3.78866e-08,0.0012
1.496,3.50282e-08,0.0013
1.572,3.226e-08,0.0013
1.653,3.04445e-08,0.0014
1.738,2.82521e-08,0.0014
1.827,2.62648e-08,0.0015
1.921,2.44602e-08,0.0015
2.019,2.2643e-08,0.0016
2.122,2.11729e-08,0.0016
2.231,1.98801e-08,0.0016
2.307,1.25861e-08,0.002
2.346,6.06528e-09,0.0029
2.365,2.85643e-09,0.0043
2.385,2.95788e-09,0.0043
2.466,1.13317e-08,0.0021
2.592,1.61344e-08,0.0018
2.725,1.52664e-08,0.0018
2.865,1.42881e-08,0.0019
3.012,1.33536e-08,0.002
3.166,1.2287e-08,0.002
3.329,1.15356e-08,0.0021
3.679,2.11197e-08,0.0017
4.066,1.9899e-08,0.0015
4.493,1.93258e-08,0.0015
4.724,9.60569e-09,0.0022
4.966,9.55616e-09,0.0021
5.22,9.50308e-09,0.0021
5.488,9.4384e-09,0.002
5.77,9.38843e-09,0.002
6.065,9.2327e-09,0.002
6.376,9.01485e-09,0.002
6.592,5.86522e-09,0.0024
6.703,2.90456e-09,0.0033
7.047,8.59314e-09,0.0019
7.408,8.34283e-09,0.0019
7.788,8.1078e-09,0.0019
8.187,8.02511e-09,0.0019
8.607,8.04779e-09,0.0019
9.048,8.56866e-09,0.0018
9.512,9.39607e-09,0.0017
10.0,1.10653e-08,0.0015
10.51,1.67418e-08,0.0012
11.05,1.75837e-08,0.0012
11.62,1.84072e-08,0.0012
12.21,1.86802e-08,0.0012
12.52,9.73362e-09,0.0017
12.84,9.78179e-09,0.0016
13.5,1.87036e-08,0.0012
13.84,8.89494e-09,0.0017
14.19,2.75854e-09,0.0031
14.55,0.0,0.0
14.92,0.0,0.0
15.68,0.0,0.0
16.49,0.0,0.0
16.9,0.0,0.0
17.33,0.0,0.0
19.64,0.0,0.0
total,3.78033e-05,0.0
