Energy,Value,Error
1e-07,4.59805e-12,0.0779
4.14e-07,3.98266e-10,0.0096
5.316e-07,3.4152e-10,0.0104
6.826e-07,5.58627e-10,0.0087
8.764e-07,8.57743e-10,0.0064
1.125e-06,1.25517e-09,0.0054
1.445e-06,1.77832e-09,0.0045
1.855e-06,2.39244e-09,0.004
2.382e-06,3.13206e-09,0.0035
3.059e-06,3.97081e-09,0.0031
3.928e-06,4.88425e-09,0.0028
5.043e-06,5.90678e-09,0.0025
6.476e-06,6.9816e-09,0.0024
8.315e-06,8.07297e-09,0.0022
1.068e-05,9.32806e-09,0.002
1.371e-05,1.03992e-08,0.002
1.76e-05,1.1569e-08,0.0018
2.26e-05,1.27061e-08,0.0017
2.902e-05,1.39531e-08,0.0017
3.727e-05,1.51653e-08,0.0016
4.785e-05,1.63013e-08,0.0016
6.144e-05,1.75922e-08,0.0015
7.889e-05,1.89516e-08,0.0015
0.0001013,2.02431e-08,0.0015
0.0001301,2.17838e-08,0.0014
0.000167,2.342e-08,0.0013
0.0002145,2.54633e-08,0.0013
0.0002754,2.76204e-08,0.0012
0.0003536,3.04209e-08,0.0012
0.000454,3.37633e-08,0.0011
0.0005829,3.79914e-08,0.0011
0.0007485,4.35928e-08,0.001
0.0009611,5.07722e-08,0.0009
0.001234,6.00686e-08,0.0008
0.001585,8.18363e-08,0.0007
0.002035,1.25144e-07,0.0006
0.002249,5.9263e-08,0.0008
0.002485,6.56913e-08,0.0008
0.002613,3.56416e-08,0.0011
0.002747,3.72646e-08,0.001
0.003035,7.64251e-08,0.0007
0.003355,3.51633e-08,0.001
0.003707,8.27346e-08,0.0007
0.004307,2.45646e-07,0.0004
0.005531,8.10294e-07,0.0002
0.007102,5.07411e-06,0.0001
0.009119,1.30607e-07,0.0007
0.01059,4.01169e-07,0.0004
0.01171,6.35922e-07,0.0003
0.01503,6.38724e-06,0.0001
0.0193,1.14014e-07,0.0008
0.02187,1.39895e-07,0.0007
0.02358,1.83251e-07,0.0006
0.02418,9.05969e-08,0.0008
0.02479,5.39074e-08,0.0011
0.02606,9.74753e-08,0.0009
0.027,1.32967e-07,0.0007
0.0285,2.81667e-07,0.0004
0.03183,1.53567e-07,0.0006
0.03431,2.09296e-08,0.0023
0.04087,1.64474e-07,0.0007
0.04631,1.4135e-07,0.0007
0.05248,1.85504e-07,0.0006
0.05656,1.02911e-07,0.0008
0.06738,1.4888e-07,0.0007
0.07202,1.42997e-08,0.0023
0.0795,1.79313e-08,0.0025
0.0825,9.1907e-09,0.0032
0.08652,1.37155e-08,0.0024
0.09804,4.51199e-08,0.0014
0.1111,5.05882e-08,0.0013
0.1168,2.21699e-08,0.002
0.1228,2.77568e-08,0.0017
0.1291,3.75281e-08,0.0015
0.1357,4.12925e-08,0.0013
0.1426,2.19383e-08,0.0019
0.15,1.3611e-08,0.0029
0.1576,2.3731e-08,0.0018
0.1657,1.41764e-08,0.0026
0.1742,1.591e-08,0.0024
0.1832,3.1998e-08,0.0016
0.1925,3.42046e-08,0.0015
0.2024,2.0715e-08,0.002
0.2128,1.54469e-08,0.0024
0.2237,1.85212e-08,0.0022
0.2352,2.63551e-08,0.0017
0.2472,1.63875e-08,0.0025
0.2732,5.7355e-08,0.0012
0.2872,1.82049e-08,0.0022
0.2945,9.71235e-09,0.0031
0.2972,3.98244e-09,0.0047
0.2985,1.97406e-09,0.0066
0.302,5.54015e-09,0.0042
0.3337,5.47032e-08,0.0013
0.3688,3.85466e-08,0.0015
0.3877,2.68846e-08,0.0017
0.4076,4.65415e-08,0.0013
0.4505,5.97332e-08,0.0011
0.4979,4.76973e-08,0.0013
0.5234,2.52931e-08,0.0019
0.5502,2.24385e-08,0.0018
0.5784,3.8569e-08,0.0013
0.6081,8.45901e-08,0.0008
0.6393,1.92417e-08,0.002
0.6721,2.57066e-08,0.0016
0.7065,1.37939e-08,0.0023
0.7427,3.36102e-08,0.0013
0.7808,2.54021e-08,0.0014
0.8209,1.81287e-08,0.0017
0.8629,1.00295e-08,0.0026
0.9072,1.14598e-08,0.0022
0.9617,9.68379e-09,0.0026
1.003,5.49365e-09,0.0035
1.108,1.41644e-08,0.002
1.165,4.93509e-09,0.0034
1.225,4.0628e-09,0.0037
1.287,2.65813e-09,0.0048
1.353,1.89792e-09,0.0063
1.423,2.66402e-09,0.0049
1.496,1.86443e-09,0.0059
1.572,2.0294e-09,0.0061
1.653,2.26475e-09,0.0052
1.738,1.87074e-09,0.0058
1.827,1.75908e-09,0.0063
1.921,1.92065e-09,0.0056
2.019,1.79495e-09,0.0057
2.122,1.41588e-09,0.0064
2.231,1.35414e-09,0.0068
2.307,8.34048e-10,0.0091
2.346,3.64621e-10,0.0125
2.365,1.50026e-10,0.0191
2.385,2.26776e-10,0.0161
2.466,7.08377e-10,0.0098
2.592,1.03388e-09,0.0079
2.725,1.03944e-09,0.0078
2.865,8.74102e-10,0.008
3.012,8.18533e-10,0.0094
3.166,8.72457e-10,0.0087
3.329,7.70978e-10,0.0083
3.679,1.28112e-09,0.0066
4.066,1.16064e-09,0.0072
4.493,1.00546e-09,0.0074
4.724,4.69409e-10,0.0121
4.966,4.42718e-10,0.0113
5.22,4.01931e-10,0.0118
5.488,3.84128e-10,0.0115
5.77,3.84216e-10,0.0133
6.065,3.67387e-10,0.0126
6.376,3.77736e-10,0.0112
6.592,2.55905e-10,0.0129
6.703,1.27603e-10,0.021
7.047,3.72467e-10,0.0119
7.408,3.82604e-10,0.011
7.788,3.99898e-10,0.0111
8.187,3.94766e-10,0.0105
8.607,4.3076e-10,0.0097
9.048,3.97169e-10,0.0095
9.512,3.91256e-10,0.0099
10.0,5.45674e-10,0.0082
10.51,8.66511e-10,0.0063
11.05,9.73168e-10,0.0059
11.62,1.16573e-09,0.0053
12.21,1.39425e-09,0.0048
12.52,7.92769e-10,0.0064
12.84,8.3796e-10,0.0063
13.5,1.80903e-09,0.0042
13.84,8.40412e-10,0.0059
14.19,1.56899e-10,0.0134
14.55,0.0,0.0
14.92,0.0,0.0
15.68,0.0,0.0
16.49,0.0,0.0
16.9,0.0,0.0
17.33,0.0,0.0
19.64,0.0,0.0
total,1.81572e-05,0.0
