Energy,Value,Error
0.9,5.164394149558088e-06,0.0001850855172014951
1.0,3.3212295393916555e-06,0.0002294040531571641
1.1,2.1541625775058707e-06,0.00032345733828976895
1.2,1.4722286143969742e-06,0.00035044308410016973
1.3,8.739813217370059e-07,0.00041412065081036613
1.4,5.669594883803184e-07,0.0005238067213751232
1.5,3.8951420264923116e-07,0.0006271849261312883
1.6,3.0939728344016194e-07,0.0007404328974044243
1.7,2.8046719768479185e-07,0.0008215706790948245
1.8,2.3917924797702283e-07,0.0008697431832660499
1.9,2.046052258643889e-07,0.0009044043123663991
2.0,1.812347577591454e-07,0.000961239131744005
2.1,1.510650302144255e-07,0.0010393581919211508
2.2,1.2592743474869647e-07,0.0011568415347052283
2.3,1.1064014492312786e-07,0.0012718899324130578
2.4,9.573354348267773e-08,0.0013764317468039767
2.5,8.119567944104758e-08,0.001494138185790166
2.6,6.968078097003992e-08,0.0015908050907560431
2.7,6.104383395548243e-08,0.0016975824312029297
2.8,5.3578208814598784e-08,0.0018298292437889734
2.9,4.6368835797493756e-08,0.0019811535016846875
3.0,4.1510215424562816e-08,0.0021254652668389173
3.1,3.9088010763445005e-08,0.0022774238001172153
3.2,3.579082092712991e-08,0.0024026480609110547
3.3,3.0605726101344886e-08,0.0025532485898121307
3.4,2.5186125233153735e-08,0.0027825532908519477
3.5,2.085846432907808e-08,0.0030196454479948466
3.6,1.8258069110716698e-08,0.0032254789528994732
3.7,1.6991083737325418e-08,0.0034999348547068913
3.8,1.5667714734461653e-08,0.003660924221788446
3.9,1.4060237236826932e-08,0.003806375747522838
4.0,1.278800264197009e-08,0.004008310478878386
4.1,1.1892216176619837e-08,0.004227095638933581
4.2,1.1096438160875847e-08,0.004430456117472786
4.3,1.0296555796579526e-08,0.0046133362398224345
4.4,9.534726678467641e-09,0.004824433741266678
4.5,8.846734880807858e-09,0.005050197296055427
4.6,8.197977655496844e-09,0.005259200759620345
4.7,7.542247750065901e-09,0.005463085486757966
4.8,6.972354165811301e-09,0.005650290212292999
4.9,6.672810328101191e-09,0.005896702973749139
5.0,6.5259721722830895e-09,0.006233570038859712
5.1,6.174733294988533e-09,0.0064139373803902
5.2,5.611391564171947e-09,0.006616064202526523
5.3,5.093503326205963e-09,0.006893415713472498
5.4,4.716620619401326e-09,0.00711286487936888
5.5,4.420866615964251e-09,0.007312991135672687
5.6,4.146680571683619e-09,0.007565998134796338
5.7,3.866938489355413e-09,0.007861561583329294
5.8,3.5754355786212313e-09,0.00814188439775808
5.9,3.3098462676218014e-09,0.008323484117420718
6.0,3.130278066580699e-09,0.008497788930540866
6.1,3.024192496998766e-09,0.00881213980052477
6.2,2.9124630356878045e-09,0.009086135996821877
6.3,2.767794146652734e-09,0.009412028328589662
6.4,2.622280998686781e-09,0.009812392831887439
6.5,2.4890801889979233e-09,0.01013701101216748
6.6,2.357305850381486e-09,0.010348476974948827
6.7,2.2244484981322705e-09,0.010501359452165376
6.8,2.0975369675328926e-09,0.010652277584389662
6.9,1.9821363129230427e-09,0.010855786078579666
7.0,1.878791385378281e-09,0.011145421102862558
7.1,1.7859038249756596e-09,0.011461106248364472
7.2,1.7040787374715353e-09,0.01182020093068305
7.3,1.6386014638763931e-09,0.01231796966765015
7.4,1.588498469004536e-09,0.012904355673562542
7.5,1.5351028453029344e-09,0.013302269490531522
7.6,1.4590174571827916e-09,0.013322807401510556
7.7,1.3668197597645042e-09,0.013420239787612235
7.8,1.2811306434446128e-09,0.014048723495322178
7.9,1.213067858088966e-09,0.01479973651030642
8.0,1.1574199669017173e-09,0.01525822678761013
8.1,1.1063313628214625e-09,0.015554108343041016
8.2,1.0555232582524043e-09,0.015905067404032257
8.3,1.0033205901017334e-09,0.016309503611313166
8.4,9.489765018754925e-10,0.016658426689591676
8.5,8.940398242897292e-10,0.016922627542441365
8.6,8.40017986503382e-10,0.01719081146133976
8.7,7.865285229808977e-10,0.01746926186815121
8.8,7.327796437388489e-10,0.017755341896728765
8.9,6.803380405516776e-10,0.018217351903674288
9.0,6.323472970591046e-10,0.018884160764121798
9.1,5.908269716997664e-10,0.01954667154712911
9.2,5.561626931952227e-10,0.020150302712791984
9.3,5.277356293264885e-10,0.020987227735030322
9.4,5.035122594012071e-10,0.022241978444438173
9.5,4.798934877460198e-10,0.023500251427948086
9.6,4.5328560103489165e-10,0.02422704247096208
9.7,4.2287914445740856e-10,0.02441216216735962
9.8,3.9134221250505143e-10,0.02436943921093642
9.9,3.629614244167012e-10,0.024307244814003308
10.0,3.4110648914681454e-10,0.024474459018236423
10.1,3.2612495346616453e-10,0.02518084182413129
10.2,3.1554099415247945e-10,0.026317626800380505
10.3,3.059504541049654e-10,0.027492930287358025
10.4,2.9491618596490144e-10,0.028549490280328438
10.5,2.816030308625851e-10,0.029574315273202003
10.6,2.6631081211922874e-10,0.030548443643627098
10.7,2.4999663302378876e-10,0.03129560237306237
10.8,2.339252843399916e-10,0.03190045672672622
10.9,2.1930358251118448e-10,0.03277046636766413
11.0,2.0667803280433286e-10,0.034073477447034005
11.1,1.9528267176525745e-10,0.03565874456575271
11.2,1.8291771394835662e-10,0.037626662599996225
11.3,1.666745787896178e-10,0.040409373013805615
11.4,1.4437235230872273e-10,0.04436131534632084
11.5,1.1624556467465369e-10,0.04947189267012473
