Energy,Value,Error
1e-07,5.975515682437762e-12,0.0446
4.14e-07,2.070422130608173e-10,0.0204
5.316e-07,5.359576474335252e-10,0.0319
6.826e-07,7.431393570973365e-10,0.0284
8.764e-07,9.902903582363284e-10,0.0284
1.125e-06,1.2549751229861585e-09,0.0228
1.445e-06,1.5883869269171062e-09,0.0199
1.855e-06,2.0340315814846828e-09,0.0181
2.382e-06,2.7482428684043642e-09,0.0163
3.059e-06,3.4691438974322824e-09,0.0145
3.928e-06,4.254919636600454e-09,0.013
5.043e-06,5.486796616736182e-09,0.0111
6.476e-06,6.936173017837078e-09,0.0104
8.315e-06,8.88480991760407e-09,0.009
1.068e-05,1.1228479393767763e-08,0.0084
1.371e-05,1.4217265991883316e-08,0.0071
1.76e-05,1.7942022040910563e-08,0.0065
2.26e-05,2.2481453402747894e-08,0.0057
2.902e-05,2.8455577385520688e-08,0.0051
3.727e-05,3.5693590266836075e-08,0.0047
4.785e-05,4.464900210337463e-08,0.004
6.144e-05,5.564663233355697e-08,0.0036
7.889e-05,7.007145317479423e-08,0.0032
0.0001013,8.687570279392281e-08,0.0029
0.0001301,1.077045235611601e-07,0.0026
0.000167,1.3403477424319493e-07,0.0024
0.0002145,1.6584881621984405e-07,0.0021
0.0002754,2.0388704561879096e-07,0.0019
0.0003536,2.51785471585448e-07,0.0017
0.000454,3.0997731830326425e-07,0.0015
0.0005829,3.7815895997528896e-07,0.0014
0.0007485,4.6042167808122425e-07,0.0013
0.0009611,5.58531784773241e-07,0.0011
0.001234,6.764804635615796e-07,0.001
0.001585,8.134554477203749e-07,0.0009
0.002035,9.758257875161678e-07,0.0009
0.002249,8.618344410103335e-07,0.0015
0.002485,1.1767165642983591e-06,0.0013
0.002613,1.350626336137694e-06,0.0017
0.002747,1.4085144494003668e-06,0.0017
0.003035,1.481364207606111e-06,0.0011
0.003355,1.5852000365123114e-06,0.0011
0.003707,1.6995593779888764e-06,0.0011
0.004307,1.845850106711037e-06,0.0008
0.005531,2.0611767166002995e-06,0.0006
0.007102,2.5404407025990068e-06,0.0006
0.009119,2.941387608687753e-06,0.0006
0.01059,3.28114988309649e-06,0.0006
0.01171,3.4953392129627992e-06,0.0008
0.01503,3.804863285923048e-06,0.0005
0.0193,4.223158941700358e-06,0.0004
0.02187,4.509828559624141e-06,0.0006
0.02358,4.63971573483829e-06,0.0007
0.02418,4.7018440214978546e-06,0.0013
0.02479,4.732826102375245e-06,0.0013
0.02606,4.7708397242233954e-06,0.0009
0.027,4.815058075114154e-06,0.0011
0.0285,4.851201778779005e-06,0.0009
0.03183,4.898540749556215e-06,0.0006
0.03431,4.9226940928719455e-06,0.0007
0.04087,4.917802643451991e-06,0.0005
0.04631,4.858203549467207e-06,0.0006
0.05248,4.625381480182281e-06,0.0006
0.05656,4.0918191997888335e-06,0.0008
0.06738,3.834638724804813e-06,0.0005
0.07202,3.556224855902645e-06,0.0009
0.0795,3.339312177793374e-06,0.0007
0.0825,3.161230559536138e-06,0.0012
0.08652,3.0863452969936217e-06,0.0011
0.09804,2.9634090057797423e-06,0.0007
0.1111,3.0091686440193573e-06,0.0007
0.1168,3.5372697063999774e-06,0.001
0.1228,4.003318140012327e-06,0.001
0.1291,4.602132751475417e-06,0.0009
0.1357,5.217485239533439e-06,0.0008
0.1426,5.606777224800441e-06,0.0008
0.15,6.2830554997759504e-06,0.0008
0.1576,8.765645376015353e-06,0.0006
0.1657,2.5374936044954656e-05,0.0003
0.1742,7.925515053268549e-05,0.0002
0.1832,2.2973182405665847e-05,0.0003
0.1925,6.926654301279374e-07,0.003
0.2024,1.6131933989465492e-06,0.0018
0.2128,2.6860215805847315e-06,0.0013
0.2237,3.58848520760576e-06,0.0011
0.2352,4.236615353199602e-06,0.001
0.2472,4.867396550993154e-06,0.0009
0.2732,5.797498837567487e-06,0.0006
0.2872,6.4484817094437705e-06,0.0008
0.2945,6.714895851824003e-06,0.0011
0.2972,6.8039549048448005e-06,0.0018
0.2985,6.8857999265414905e-06,0.0026
0.302,6.818222833692483e-06,0.0016
0.3337,7.05085811338529e-06,0.0005
0.3688,8.032647573700342e-06,0.0005
0.3877,8.453989150785252e-06,0.0008
0.4076,8.405105718348148e-06,0.0007
0.4505,7.641235449780802e-06,0.0005
0.4979,8.150973706181729e-06,0.0005
0.5234,6.958212382153618e-06,0.0008
0.5502,9.10117527990076e-06,0.0007
0.5784,1.662860023213376e-05,0.0005
0.6081,1.4296115736661601e-05,0.0005
0.6393,1.2745669147157857e-05,0.0005
0.6721,1.0796527093834035e-05,0.0006
0.7065,9.253854788674014e-06,0.0006
0.7427,5.222578776936093e-06,0.0009
0.7808,3.2266279187951344e-06,0.0012
0.8209,1.10564090548479e-05,0.0006
0.8629,1.0076033821876452e-05,0.0006
0.9072,9.524505115691369e-06,0.0006
0.9617,1.1686620767624338e-05,0.0005
1.003,1.4115288845004951e-05,0.0005
1.108,1.5991791274963314e-05,0.0003
1.165,1.4695751362290898e-05,0.0005
1.225,1.5664034382494693e-05,0.0004
1.287,1.1717841906869442e-05,0.0005
1.353,1.106011494492905e-05,0.0006
1.423,4.216861147178574e-06,0.001
1.496,7.3341973252230225e-06,0.0007
1.572,7.529834062338046e-06,0.0007
1.653,1.0606645223267296e-05,0.0006
1.738,1.1239867220930892e-05,0.0005
1.827,8.249437987210497e-06,0.0006
1.921,3.9221570986844665e-06,0.001
2.019,4.3374673223644955e-06,0.0009
2.122,5.80508745558473e-06,0.0008
2.231,4.8092391829112835e-06,0.0008
2.307,4.554740870358082e-06,0.001
2.346,4.0018799971233694e-06,0.0016
2.365,4.080559293401141e-06,0.0022
2.385,3.0426301443536354e-06,0.0025
2.466,3.852593560262449e-06,0.0011
2.592,2.1752325215015617e-06,0.0013
2.725,2.404861060428132e-06,0.0012
2.865,2.3475685227436243e-06,0.0012
3.012,2.471282664828691e-06,0.0011
3.166,1.977781795148493e-06,0.0013
3.329,2.422883232950614e-06,0.0011
3.679,2.4630531146985186e-06,0.0008
4.066,1.8803376419588617e-06,0.0009
4.493,1.3946297223968972e-06,0.001
4.724,1.0508470751635993e-06,0.0016
4.966,8.470081252574897e-07,0.0018
5.22,8.494926581806229e-07,0.0018
5.488,1.1520400510323072e-06,0.0015
5.77,8.048564500612105e-07,0.0018
6.065,7.388584240307748e-07,0.0018
6.376,7.72019195564372e-07,0.0017
6.592,9.256044484535488e-07,0.0019
6.703,9.71746100437392e-07,0.0026
7.047,7.626300719562809e-07,0.0018
7.408,7.767566614392407e-07,0.0017
7.788,7.183270908925943e-07,0.0018
8.187,7.107516606129977e-07,0.0018
8.607,7.205582321617926e-07,0.0017
9.048,7.504796105866617e-07,0.0017
9.512,7.833567394522003e-07,0.0016
10.0,9.770695143406763e-07,0.0015
10.51,1.5646205665128874e-06,0.0011
11.05,1.7123522298095767e-06,0.001
11.62,1.8532994121272895e-06,0.001
12.21,1.9341563579564773e-06,0.001
12.52,1.9531369071284264e-06,0.0014
12.84,2.011305792154667e-06,0.0013
13.5,1.9378112224338326e-06,0.0009
13.84,1.7997476591305615e-06,0.0013
14.19,5.330308176381105e-07,0.0025
14.55,0.0,0.0
14.92,0.0,0.0
15.68,0.0,0.0
16.49,0.0,0.0
16.9,0.0,0.0
17.33,0.0,0.0
19.64,0.0,0.0
