Energy,Value,Error
1e-07,2.18627e-10,0.0469
4.14e-07,1.39668e-09,0.017
5.316e-07,5.12867e-10,0.0299
6.826e-07,7.0965e-10,0.033
8.764e-07,8.32116e-10,0.0291
1.125e-06,9.77694e-10,0.027
1.445e-06,1.17166e-09,0.0227
1.855e-06,1.53396e-09,0.0236
2.382e-06,1.76628e-09,0.0221
3.059e-06,2.07201e-09,0.0198
3.928e-06,2.45114e-09,0.0192
5.043e-06,2.81954e-09,0.0181
6.476e-06,3.32538e-09,0.0167
8.315e-06,3.7737e-09,0.0152
1.068e-05,4.59868e-09,0.0168
1.371e-05,5.14017e-09,0.0134
1.76e-05,5.79532e-09,0.013
2.26e-05,6.65404e-09,0.0122
2.902e-05,7.43556e-09,0.0112
3.727e-05,8.24233e-09,0.0103
4.785e-05,9.42387e-09,0.0106
6.144e-05,1.03893e-08,0.0106
7.889e-05,1.1811e-08,0.0092
0.0001013,1.27558e-08,0.0091
0.0001301,1.39939e-08,0.0095
0.000167,1.50413e-08,0.0083
0.0002145,1.63341e-08,0.0083
0.0002754,1.69578e-08,0.0075
0.0003536,1.82712e-08,0.0075
0.000454,1.87887e-08,0.0074
0.0005829,1.90827e-08,0.0073
0.0007485,1.88313e-08,0.0075
0.0009611,1.80745e-08,0.0075
0.001234,1.64086e-08,0.0075
0.001585,1.48657e-08,0.0078
0.002035,1.47578e-08,0.0073
0.002249,1.01401e-08,0.0083
0.002485,6.94145e-08,0.0024
0.002613,3.80343e-07,0.001
0.002747,7.74965e-10,0.0282
0.003035,5.86851e-09,0.012
0.003355,1.69716e-08,0.0068
0.003707,2.78526e-08,0.0049
0.004307,6.58976e-08,0.0033
0.005531,5.31643e-07,0.001
0.007102,3.23052e-06,0.0004
0.009119,5.50885e-07,0.0012
0.01059,2.92816e-07,0.0018
0.01171,2.64951e-07,0.0019
0.01503,7.28391e-07,0.0011
0.0193,9.98673e-07,0.001
0.02187,7.59252e-07,0.0011
0.02358,2.89706e-06,0.0004
0.02418,6.16925e-08,0.0042
0.02479,8.48796e-08,0.0034
0.02606,2.09807e-07,0.0021
0.027,1.5458e-07,0.0025
0.0285,2.12657e-07,0.0022
0.03183,6.14426e-07,0.0012
0.03431,5.35092e-07,0.0012
0.04087,9.11031e-07,0.001
0.04631,6.56997e-07,0.0012
0.05248,1.83159e-06,0.0006
0.05656,8.42191e-07,0.0009
0.06738,8.98248e-07,0.001
0.07202,5.78635e-07,0.0013
0.0795,1.47704e-06,0.0007
0.0825,5.7365e-07,0.0012
0.08652,7.50336e-07,0.001
0.09804,2.07565e-06,0.0006
0.1111,2.19311e-06,0.0006
0.1168,9.2778e-07,0.0009
0.1228,9.55782e-07,0.001
0.1291,9.76434e-07,0.0009
0.1357,9.94069e-07,0.0009
0.1426,1.00704e-06,0.0009
0.15,1.04289e-06,0.0009
0.1576,1.0215e-06,0.0009
0.1657,1.02082e-06,0.0009
0.1742,9.96133e-07,0.0009
0.1832,9.859e-07,0.0009
0.1925,9.32439e-07,0.0009
0.2024,7.79019e-07,0.001
0.2128,3.92613e-07,0.0017
0.2237,3.95337e-07,0.0016
0.2352,3.99822e-07,0.0017
0.2472,3.99494e-07,0.0017
0.2732,8.07762e-07,0.0011
0.2872,4.06053e-07,0.0016
0.2945,2.05221e-07,0.0023
0.2972,7.47417e-08,0.0038
0.2985,3.55656e-08,0.0054
0.302,9.53355e-08,0.0033
0.3337,8.09636e-07,0.0011
0.3688,8.03327e-07,0.0011
0.3877,3.97166e-07,0.0016
0.4076,3.93409e-07,0.0016
0.4505,7.74183e-07,0.0011
0.4979,7.48755e-07,0.0012
0.5234,3.60792e-07,0.0017
0.5502,3.48991e-07,0.0017
0.5784,3.37582e-07,0.0018
0.6081,3.23808e-07,0.0018
0.6393,3.08072e-07,0.0018
0.6721,2.88618e-07,0.0018
0.7065,2.67782e-07,0.002
0.7427,2.43805e-07,0.002
0.7808,2.18567e-07,0.0022
0.8209,1.90815e-07,0.0023
0.8629,1.61517e-07,0.0025
0.9072,1.33128e-07,0.0027
0.9617,1.20561e-07,0.0029
1.003,6.90391e-08,0.0037
1.108,1.34186e-07,0.0027
1.165,5.5475e-08,0.0042
1.225,5.05976e-08,0.0048
1.287,4.61663e-08,0.0047
1.353,4.3701e-08,0.0046
1.423,4.10824e-08,0.0049
1.496,3.69997e-08,0.0052
1.572,3.38795e-08,0.0051
1.653,3.12071e-08,0.0052
1.738,2.84215e-08,0.0055
1.827,2.63237e-08,0.0057
1.921,2.3276e-08,0.0059
2.019,2.07251e-08,0.0063
2.122,1.86046e-08,0.0066
2.231,1.6575e-08,0.0074
2.307,1.00466e-08,0.0092
2.346,4.76149e-09,0.0144
2.365,2.20555e-09,0.0193
2.385,2.30754e-09,0.0187
2.466,8.7544e-09,0.0093
2.592,1.25519e-08,0.0083
2.725,1.14844e-08,0.0082
2.865,1.05767e-08,0.0087
3.012,9.97894e-09,0.0092
3.166,9.22881e-09,0.009
3.329,8.84727e-09,0.0094
3.679,1.66421e-08,0.0068
4.066,1.48981e-08,0.0071
4.493,1.48119e-08,0.007
4.724,7.58951e-09,0.0096
4.966,7.73944e-09,0.01
5.22,7.84773e-09,0.0093
5.488,8.19893e-09,0.0092
5.77,8.8248e-09,0.009
6.065,9.31522e-09,0.0085
6.376,9.83711e-09,0.0081
6.592,6.73655e-09,0.0107
6.703,3.37028e-09,0.0137
7.047,1.09263e-08,0.0078
7.408,1.12822e-08,0.0074
7.788,1.21506e-08,0.0073
8.187,1.30265e-08,0.0067
8.607,1.43386e-08,0.0066
9.048,1.52896e-08,0.0062
9.512,1.60975e-08,0.0059
10.0,1.8982e-08,0.0054
10.51,3.05581e-08,0.0041
11.05,3.24152e-08,0.0039
11.62,3.40207e-08,0.0038
12.21,3.46574e-08,0.0037
12.52,1.80734e-08,0.0052
12.84,1.86517e-08,0.0049
13.5,3.77351e-08,0.0034
13.84,1.81455e-08,0.0048
14.19,5.27957e-09,0.0086
14.55,0.0,0.0
14.92,0.0,0.0
15.68,0.0,0.0
16.49,0.0,0.0
16.9,0.0,0.0
17.33,0.0,0.0
19.64,0.0,0.0
