Energy,Value,Error
1e-07,1.3458496464527173e-12,0.2034
4.14e-07,5.785404637901082e-11,0.0835
5.316e-07,1.8552718530686043e-10,0.1164
6.826e-07,2.337486415888899e-10,0.0973
8.764e-07,3.87768857512584e-10,0.0938
1.125e-06,4.665545529285688e-10,0.086
1.445e-06,6.329539042424981e-10,0.0626
1.855e-06,8.268469236311031e-10,0.1542
2.382e-06,9.749864810086121e-10,0.0541
3.059e-06,1.1779205828476347e-09,0.0553
3.928e-06,1.3514352002720899e-09,0.0463
5.043e-06,1.6191891039118142e-09,0.0451
6.476e-06,1.750754443465207e-09,0.0399
8.315e-06,2.249453216842947e-09,0.035
1.068e-05,2.6064900104862528e-09,0.0333
1.371e-05,2.5704070574927806e-09,0.0335
1.76e-05,2.922721055344141e-09,0.0259
2.26e-05,3.0167125395492715e-09,0.0244
2.902e-05,3.332596888403304e-09,0.0257
3.727e-05,1.4484571526643939e-08,0.0156
4.785e-05,1.945835286611441e-08,0.0145
6.144e-05,2.3338176239836876e-08,0.0119
7.889e-05,2.8886643963041393e-08,0.0118
0.0001013,3.417939404073791e-08,0.0103
0.0001301,3.972428341140383e-08,0.0093
0.000167,4.7454362376601336e-08,0.0089
0.0002145,5.396500421881746e-08,0.0077
0.0002754,6.103078759244754e-08,0.0078
0.0003536,6.675795608073755e-08,0.0067
0.000454,6.887744674154928e-08,0.0066
0.0005829,7.0151684318395e-08,0.0061
0.0007485,7.880728624440178e-08,0.0054
0.0009611,1.1061558862170161e-07,0.0044
0.001234,2.208265923260738e-07,0.003
0.001585,2.278004427689703e-07,0.0032
0.002035,3.336310234005025e-07,0.0026
0.002249,4.430629528011306e-07,0.0034
0.002485,9.900619649366439e-07,0.002
0.002613,4.1655644069322703e-07,0.0056
0.002747,4.715197298690114e-07,0.0048
0.003035,5.605623783590471e-07,0.0034
0.003355,6.965369020291235e-07,0.0028
0.003707,8.541486872834057e-07,0.0025
0.004307,8.126387890710741e-07,0.0021
0.005531,1.3654302252271661e-06,0.0012
0.007102,1.5089289002428787e-06,0.0012
0.009119,2.6801905937193294e-06,0.0008
0.01059,2.622935286090429e-06,0.0011
0.01171,3.0287661314531874e-06,0.0013
0.01503,3.7092161734921068e-06,0.0007
0.0193,4.825181940179164e-06,0.0007
0.02187,5.7630088986221444e-06,0.0009
0.02358,6.303967949082789e-06,0.0011
0.02418,6.613417047750657e-06,0.0019
0.02479,6.786931070668418e-06,0.0018
0.02606,7.007634329379262e-06,0.0013
0.027,7.213937544324511e-06,0.0015
0.0285,7.446082682657281e-06,0.0012
0.03183,7.963257531368536e-06,0.0008
0.03431,8.51214576251644e-06,0.0013
0.04087,9.233054206638164e-06,0.0006
0.04631,1.0032760224617038e-05,0.0007
0.05248,1.0645998479077353e-05,0.0008
0.05656,1.112532882254682e-05,0.0009
0.06738,1.1758894550528184e-05,0.0005
0.07202,1.2351487935797558e-05,0.0009
0.0795,1.2793133586632456e-05,0.0007
0.0825,1.3119689955402208e-05,0.0011
0.08652,1.3325974714846867e-05,0.001
0.09804,1.3543524596666424e-05,0.0006
0.1111,9.645905153758664e-06,0.0008
0.1168,9.245693644776905e-06,0.0012
0.1228,9.433175945548191e-06,0.0012
0.1291,9.59414937259582e-06,0.0012
0.1357,9.782173102360744e-06,0.0012
0.1426,9.92478545434407e-06,0.0013
0.15,1.005467565096542e-05,0.0012
0.1576,1.0204900164511482e-05,0.0012
0.1657,1.0292495937898444e-05,0.0012
0.1742,1.0399970897568561e-05,0.0013
0.1832,1.0468077584728523e-05,0.0012
0.1925,1.0504647517374419e-05,0.0012
0.2024,1.0554163170864005e-05,0.0012
0.2128,1.051840846076693e-05,0.0012
0.2237,1.0404977573918739e-05,0.0012
0.2352,1.0300068231276523e-05,0.0012
0.2472,1.0129334991369644e-05,0.0013
0.2732,9.822591146605511e-06,0.0009
0.2872,9.444277014018835e-06,0.0013
0.2945,9.214321561041309e-06,0.0019
0.2972,9.059181886985475e-06,0.0031
0.2985,9.050226617454977e-06,0.0046
0.302,8.928647606791859e-06,0.0027
0.3337,8.527564580421717e-06,0.001
0.3688,7.566214039794647e-06,0.0011
0.3877,6.7308886894708565e-06,0.0016
0.4076,6.104511372567578e-06,0.0017
0.4505,5.054582038368836e-06,0.0013
0.4979,3.5988980961357432e-06,0.0016
0.5234,2.4993024345082592e-06,0.0036
0.5502,1.8435489638097587e-06,0.0032
0.5784,1.4372750345319442e-06,0.0035
0.6081,1.2082117897822506e-06,0.0049
0.6393,1.0908676144988074e-06,0.0043
0.6721,9.860870450805993e-07,0.0043
0.7065,8.930952721017022e-07,0.0046
0.7427,7.985272058374936e-07,0.0049
0.7808,7.161275766493635e-07,0.0049
0.8209,6.725314939491837e-07,0.0055
0.8629,6.253117620483326e-07,0.0053
0.9072,5.953045402716996e-07,0.0057
0.9617,5.5832898295758e-07,0.0055
1.003,5.30279079266901e-07,0.0066
1.108,5.056554261068254e-07,0.0042
1.165,4.890131594922637e-07,0.0062
1.225,4.6937104872578983e-07,0.0062
1.287,4.4031682785285915e-07,0.0066
1.353,3.9469974003780193e-07,0.0066
1.423,3.5589498454996983e-07,0.0072
1.496,3.2822108162146385e-07,0.0071
1.572,3.1390318124169076e-07,0.0075
1.653,3.0726791081685847e-07,0.0077
1.738,2.9167260297230974e-07,0.0081
1.827,2.7687686479300086e-07,0.0078
1.921,2.672919656503475e-07,0.0082
2.019,2.573173643489489e-07,0.0079
2.122,2.518695931023845e-07,0.0081
2.231,2.4913519549364287e-07,0.0087
2.307,2.427695541695673e-07,0.0101
2.346,2.426518466742771e-07,0.0139
2.365,2.4594138043949656e-07,0.0197
2.385,2.449513024422829e-07,0.0197
2.466,2.370184903161043e-07,0.01
2.592,2.3017566969682936e-07,0.0081
2.725,2.201877964839376e-07,0.0084
2.865,2.072218792941236e-07,0.0086
3.012,1.9455247874855178e-07,0.0093
3.166,1.7885996849317113e-07,0.0094
3.329,1.6553912065860483e-07,0.0096
3.679,1.4668044522530543e-07,0.0069
4.066,1.1780292481153348e-07,0.008
4.493,9.238259043503981e-08,0.0089
4.724,7.673659949397169e-08,0.0131
4.966,6.816258130240302e-08,0.0168
5.22,6.407329697802945e-08,0.0143
5.488,6.478205472946111e-08,0.0147
5.77,6.627918497174028e-08,0.0137
6.065,6.789917450163463e-08,0.0134
6.376,7.278388498462208e-08,0.0127
6.592,7.66782151491679e-08,0.015
6.703,7.935852627510472e-08,0.021
7.047,8.546439341562504e-08,0.012
7.408,9.507510663591647e-08,0.011
7.788,1.0525054244448515e-07,0.0109
8.187,1.1882007438399731e-07,0.0098
8.607,1.2927844062452227e-07,0.0096
9.048,1.425660899448937e-07,0.0088
9.512,1.6684442770368545e-07,0.0081
10.0,2.2821480986175298e-07,0.007
10.51,3.860191493474743e-07,0.0052
11.05,4.140450543089021e-07,0.0054
11.62,4.431508173138602e-07,0.0049
12.21,4.756929492224858e-07,0.0045
12.52,4.880608707403514e-07,0.0064
12.84,4.968473529023e-07,0.0061
13.5,4.989387682468704e-07,0.0043
13.84,4.635258024282015e-07,0.0064
14.19,1.2936093609380664e-07,0.0109
14.55,0.0,0.0
14.92,0.0,0.0
15.68,0.0,0.0
16.49,0.0,0.0
16.9,0.0,0.0
17.33,0.0,0.0
19.64,0.0,0.0
