Energy,Value,Error
1e-07,0.0,0.0
4.14e-07,1.690580080944949e-12,0.27
5.316e-07,1.8188315485547734e-11,0.2205
6.826e-07,3.260457034003326e-11,0.1717
8.764e-07,6.82912092957755e-11,0.1146
1.125e-06,1.2300307569432759e-10,0.0942
1.445e-06,1.8234281643428115e-10,0.0749
1.855e-06,2.7047902595118143e-10,0.0619
2.382e-06,4.069772035914678e-10,0.0592
3.059e-06,6.22316598629152e-10,0.0493
3.928e-06,9.236276286474686e-10,0.0381
5.043e-06,1.3433344899478966e-09,0.0699
6.476e-06,1.7663640814312746e-09,0.0399
8.315e-06,2.395585722194696e-09,0.0294
1.068e-05,3.5137307868875105e-09,0.0278
1.371e-05,4.446078771743571e-09,0.0288
1.76e-05,5.636869067147974e-09,0.02
2.26e-05,7.359658505017855e-09,0.0181
2.902e-05,9.265890130117687e-09,0.0189
3.727e-05,1.1069311084648151e-08,0.0152
4.785e-05,1.3516437894074562e-08,0.0137
6.144e-05,1.6616106575689124e-08,0.0131
7.889e-05,1.915786666675243e-08,0.0136
0.0001013,2.143918143205952e-08,0.0111
0.0001301,2.406519388908873e-08,0.0202
0.000167,2.5084221601139633e-08,0.0105
0.0002145,2.397214630749082e-08,0.0109
0.0002754,2.1643652007387653e-08,0.0105
0.0003536,1.7210610453007665e-08,0.0106
0.000454,1.594544940929366e-08,0.0092
0.0005829,3.905446003192937e-08,0.0062
0.0007485,1.7427966891722057e-07,0.0034
0.0009611,1.2710750983025343e-07,0.005
0.001234,1.3806398199827803e-07,0.0047
0.001585,1.2494832593945806e-07,0.0044
0.002035,9.601082179366233e-08,0.0049
0.002249,7.285709202036154e-08,0.0091
0.002485,6.111999379433327e-08,0.0088
0.002613,5.377578178360579e-08,0.0117
0.002747,5.148966896120597e-08,0.012
0.003035,1.1293753420268506e-07,0.0055
0.003355,2.3541718442066743e-07,0.0035
0.003707,5.521766355517205e-08,0.0082
0.004307,8.707982122129161e-08,0.0049
0.005531,4.5537662324598555e-08,0.0049
0.007102,9.40242651234461e-10,0.0357
0.009119,1.2934682594682573e-09,0.036
0.01059,2.5413839712758705e-09,0.0267
0.01171,4.415733346593558e-09,0.0261
0.01503,1.0210812014717599e-08,0.0134
0.0193,2.7728369894131348e-08,0.0083
0.02187,5.617765376525473e-08,0.0068
0.02358,8.040693306282974e-08,0.0072
0.02418,9.187784402351524e-08,0.011
0.02479,1.0434325032481452e-07,0.0109
0.02606,1.1742065819490119e-07,0.0071
0.027,1.351567721837368e-07,0.0081
0.0285,1.5344676136631943e-07,0.0061
0.03183,1.97280391068216e-07,0.0037
0.03431,2.5546860116450286e-07,0.0041
0.04087,3.523530925299002e-07,0.0023
0.04631,4.822024441878137e-07,0.0023
0.05248,5.99266559624637e-07,0.0021
0.05656,6.958846751286358e-07,0.0025
0.06738,8.336541229477383e-07,0.0015
0.07202,9.852524799866915e-07,0.0022
0.0795,1.1065833355986534e-06,0.0017
0.0825,1.2119211345493674e-06,0.0027
0.08652,1.279599516796799e-06,0.0023
0.09804,1.4407924890043512e-06,0.0014
0.1111,1.67570883832065e-06,0.0013
0.1168,1.8314521805527923e-06,0.0019
0.1228,1.9280174357424907e-06,0.0025
0.1291,2.0123012642458023e-06,0.0018
0.1357,2.102979087494425e-06,0.0018
0.1426,2.198643656139402e-06,0.0018
0.15,2.274914740823207e-06,0.0018
0.1576,2.3702635618517143e-06,0.0018
0.1657,2.4504802559925665e-06,0.0017
0.1742,2.5300079127356848e-06,0.0017
0.1832,2.609679356610647e-06,0.0017
0.1925,2.680132478133574e-06,0.0016
0.2024,2.7599520841023674e-06,0.0018
0.2128,2.8326882417708495e-06,0.0017
0.2237,2.9080671255258734e-06,0.0016
0.2352,2.9747050908744308e-06,0.0016
0.2472,3.0433160356650797e-06,0.0015
0.2732,3.120360231008905e-06,0.0011
0.2872,3.1855712952545586e-06,0.0016
0.2945,3.2094728084487445e-06,0.0021
0.2972,3.2135442251116407e-06,0.0035
0.2985,3.1914347720850552e-06,0.0054
0.302,3.2283801205799403e-06,0.0032
0.3337,3.2348024681211604e-06,0.0011
0.3688,3.221180046355915e-06,0.0011
0.3877,3.186943494540508e-06,0.0015
0.4076,3.1346059958084085e-06,0.0016
0.4505,3.0434555384884496e-06,0.0011
0.4979,2.8408002550494385e-06,0.0012
0.5234,2.5842929724671767e-06,0.0018
0.5502,2.3799530802350094e-06,0.0019
0.5784,2.148135035359775e-06,0.0021
0.6081,1.8929748423499978e-06,0.0023
0.6393,1.638963585619361e-06,0.0024
0.6721,1.3929839605636194e-06,0.0027
0.7065,1.2097809039978092e-06,0.0029
0.7427,1.0833498383043862e-06,0.0031
0.7808,9.86784285834696e-07,0.0034
0.8209,9.009536743377386e-07,0.0035
0.8629,8.297428041440722e-07,0.0036
0.9072,7.597416547396039e-07,0.0038
0.9617,6.958547359981708e-07,0.0036
1.003,6.585745913250078e-07,0.0045
1.108,6.095333678488146e-07,0.003
1.165,5.616661331088362e-07,0.0043
1.225,5.313088235600855e-07,0.0045
1.287,5.084895990315241e-07,0.0046
1.353,4.809377670418209e-07,0.0047
1.423,4.536489432861779e-07,0.0047
1.496,4.279840913634608e-07,0.005
1.572,3.951764403099568e-07,0.0054
1.653,3.684683240134796e-07,0.0054
1.738,3.329344225156869e-07,0.0056
1.827,3.0128603347977765e-07,0.0064
1.921,2.691675658627006e-07,0.0068
2.019,2.4154855623315084e-07,0.0066
2.122,2.2215701219539572e-07,0.0069
2.231,2.0452427607042582e-07,0.0072
2.307,1.8929810537666747e-07,0.0095
2.346,1.8581558962057074e-07,0.0129
2.365,1.7182783439253699e-07,0.0186
2.385,1.7118067589522006e-07,0.0179
2.466,1.6428091308845866e-07,0.009
2.592,1.5021259147461521e-07,0.0079
2.725,1.3255573541022105e-07,0.0087
2.865,1.1841894671815973e-07,0.0091
3.012,1.0344919980940999e-07,0.0096
3.166,9.170063081777285e-08,0.0099
3.329,8.2518579297904e-08,0.0108
3.679,6.885053159546897e-08,0.008
4.066,5.4927007182250446e-08,0.009
4.493,4.700687957398556e-08,0.0097
4.724,4.182784042691543e-08,0.0141
4.966,4.0350858185394677e-08,0.0141
5.22,3.987934513255767e-08,0.0141
5.488,4.05153239141899e-08,0.0151
5.77,4.099868696208642e-08,0.0147
6.065,4.237656787293139e-08,0.0143
6.376,4.4117153805568146e-08,0.0133
6.592,4.634670729175885e-08,0.0179
6.703,4.6904089336205707e-08,0.0234
7.047,4.940774746185981e-08,0.0133
7.408,5.395157657254734e-08,0.012
7.788,6.298648276822043e-08,0.0117
8.187,7.102372845308794e-08,0.0109
8.607,7.5976204650918e-08,0.0101
9.048,8.510881748319336e-08,0.0101
9.512,1.0023470993442926e-07,0.0089
10.0,1.3120902463570707e-07,0.0077
10.51,2.179964610843101e-07,0.0057
11.05,2.54290924460779e-07,0.0053
11.62,2.473093823748214e-07,0.0052
12.21,2.185248999119251e-07,0.0056
12.52,2.113450706098228e-07,0.0081
12.84,1.9935388852020702e-07,0.0079
13.5,1.8372593696671864e-07,0.0057
13.84,1.624909331932289e-07,0.0084
14.19,4.3244438436722386e-08,0.0157
14.55,0.0,0.0
14.92,0.0,0.0
15.68,0.0,0.0
16.49,0.0,0.0
16.9,0.0,0.0
17.33,0.0,0.0
19.64,0.0,0.0
