Energy,Value,Error
1e-07,1.04967e-10,0.1294
4.14e-07,4.86797e-10,0.0563
5.316e-07,2.21513e-10,0.1079
6.826e-07,2.32995e-10,0.0834
8.764e-07,3.29755e-10,0.0815
1.125e-06,3.88629e-10,0.0655
1.445e-06,5.28743e-10,0.0558
1.855e-06,6.66126e-10,0.062
2.382e-06,8.77724e-10,0.0479
3.059e-06,1.09885e-09,0.0453
3.928e-06,1.33925e-09,0.0368
5.043e-06,1.74983e-09,0.0322
6.476e-06,2.2805e-09,0.0289
8.315e-06,2.92819e-09,0.0278
1.068e-05,3.63921e-09,0.0252
1.371e-05,4.55494e-09,0.0231
1.76e-05,5.68395e-09,0.0189
2.26e-05,7.08395e-09,0.0174
2.902e-05,9.03079e-09,0.0152
3.727e-05,1.13162e-08,0.0134
4.785e-05,1.38302e-08,0.0123
6.144e-05,1.71919e-08,0.0108
7.889e-05,2.12873e-08,0.01
0.0001013,2.63078e-08,0.009
0.0001301,3.26181e-08,0.0081
0.000167,3.97675e-08,0.0071
0.0002145,4.93911e-08,0.0064
0.0002754,6.05653e-08,0.006
0.0003536,7.47658e-08,0.0053
0.000454,9.26472e-08,0.0049
0.0005829,1.11771e-07,0.0044
0.0007485,1.35092e-07,0.004
0.0009611,1.61628e-07,0.0036
0.001234,1.93553e-07,0.0033
0.001585,2.34464e-07,0.003
0.002035,2.79111e-07,0.0027
0.002249,1.26358e-07,0.004
0.002485,1.35395e-07,0.0039
0.002613,7.16487e-08,0.0055
0.002747,7.3878e-08,0.0053
0.003035,1.54629e-07,0.0038
0.003355,1.66303e-07,0.0035
0.003707,1.76751e-07,0.0034
0.004307,2.87764e-07,0.0027
0.005531,5.43655e-07,0.0019
0.007102,6.35101e-07,0.0018
0.009119,7.33782e-07,0.0017
0.01059,4.87419e-07,0.0021
0.01171,3.50947e-07,0.0024
0.01503,9.4743e-07,0.0015
0.0193,1.06488e-06,0.0014
0.02187,5.76401e-07,0.0019
0.02358,3.60202e-07,0.0023
0.02418,1.21997e-07,0.004
0.02479,1.22261e-07,0.0041
0.02606,2.49704e-07,0.0028
0.027,1.78888e-07,0.0033
0.0285,2.76893e-07,0.0027
0.03183,5.8116e-07,0.0018
0.03431,4.04858e-07,0.0022
0.04087,9.79029e-07,0.0014
0.04631,7.30204e-07,0.0016
0.05248,7.72013e-07,0.0016
0.05656,4.89038e-07,0.002
0.06738,1.22992e-06,0.0012
0.07202,5.02795e-07,0.0021
0.0795,7.80305e-07,0.0016
0.0825,3.02395e-07,0.0025
0.08652,3.99269e-07,0.0022
0.09804,1.11569e-06,0.0013
0.1111,1.16981e-06,0.0013
0.1168,5.28175e-07,0.002
0.1228,5.73507e-07,0.0019
0.1291,6.22627e-07,0.0018
0.1357,6.73327e-07,0.0017
0.1426,7.23492e-07,0.0016
0.15,7.8302e-07,0.0015
0.1576,7.93513e-07,0.0015
0.1657,8.0669e-07,0.0015
0.1742,7.77855e-07,0.0015
0.1832,7.28488e-07,0.0015
0.1925,5.92589e-07,0.0017
0.2024,4.63404e-07,0.0019
0.2128,3.16218e-07,0.0024
0.2237,1.94713e-07,0.0034
0.2352,8.77894e-08,0.0055
0.2472,3.64887e-08,0.0099
0.2732,3.21834e-08,0.0113
0.2872,2.9036e-08,0.0114
0.2945,2.3268e-08,0.0128
0.2972,1.02284e-08,0.0166
0.2985,5.48459e-09,0.0227
0.302,1.63422e-08,0.0133
0.3337,2.31369e-07,0.0035
0.3688,3.90567e-07,0.0024
0.3877,2.42321e-07,0.003
0.4076,2.72949e-07,0.0027
0.4505,6.06715e-07,0.0018
0.4979,6.92307e-07,0.0017
0.5234,3.72051e-07,0.0023
0.5502,3.81435e-07,0.0022
0.5784,3.93063e-07,0.0022
0.6081,3.96574e-07,0.0022
0.6393,3.98087e-07,0.0022
0.6721,3.9519e-07,0.0021
0.7065,3.89567e-07,0.0022
0.7427,3.77016e-07,0.0022
0.7808,3.59326e-07,0.0023
0.8209,3.35055e-07,0.0023
0.8629,3.07052e-07,0.0025
0.9072,2.81519e-07,0.0028
0.9617,2.96391e-07,0.0026
1.003,1.93827e-07,0.0033
1.108,3.9597e-07,0.0023
1.165,1.9416e-07,0.0034
1.225,1.92226e-07,0.0033
1.287,1.89754e-07,0.0034
1.353,1.93182e-07,0.0033
1.423,1.97251e-07,0.0033
1.496,1.97591e-07,0.0033
1.572,2.00812e-07,0.0032
1.653,2.07266e-07,0.0032
1.738,2.09746e-07,0.0031
1.827,2.09176e-07,0.0031
1.921,2.06355e-07,0.0031
2.019,1.97169e-07,0.0032
2.122,1.89869e-07,0.0032
2.231,1.82165e-07,0.0033
2.307,1.17243e-07,0.0042
2.346,5.66863e-08,0.0059
2.365,2.68484e-08,0.0091
2.385,2.80147e-08,0.0085
2.466,1.08819e-07,0.0044
2.592,1.55499e-07,0.0037
2.725,1.49288e-07,0.0039
2.865,1.43622e-07,0.004
3.012,1.39141e-07,0.0039
3.166,1.32407e-07,0.004
3.329,1.27746e-07,0.004
3.679,2.34357e-07,0.003
4.066,2.05323e-07,0.0032
4.493,1.84477e-07,0.0034
4.724,9.47064e-08,0.0047
4.966,9.98103e-08,0.0046
5.22,1.09423e-07,0.0043
5.488,1.24055e-07,0.0039
5.77,1.30631e-07,0.0039
6.065,1.30793e-07,0.0038
6.376,1.38989e-07,0.0037
6.592,9.72271e-08,0.0045
6.703,4.89909e-08,0.006
7.047,1.53787e-07,0.0034
7.408,1.62728e-07,0.0033
7.788,1.72357e-07,0.0032
8.187,1.82215e-07,0.0031
8.607,1.97526e-07,0.0029
9.048,2.16255e-07,0.0027
9.512,2.42829e-07,0.0025
10.0,2.77835e-07,0.0023
10.51,3.16902e-07,0.002
11.05,3.23036e-07,0.002
11.62,3.25035e-07,0.0019
12.21,3.0735e-07,0.0019
12.52,1.44201e-07,0.0028
12.84,1.32214e-07,0.0029
13.5,2.09665e-07,0.0022
13.84,6.62483e-08,0.004
14.19,1.98326e-08,0.0072
14.55,0.0,0.0
14.92,0.0,0.0
15.68,0.0,0.0
16.49,0.0,0.0
16.9,0.0,0.0
17.33,0.0,0.0
19.64,0.0,0.0
