Energy,Value,Error
1e-07,2.209444223717334e-11,0.0401
4.14e-07,1.0230761662302708e-09,0.013
5.316e-07,2.5462217824162955e-09,0.0246
6.826e-07,3.111103613980658e-09,0.0188
8.764e-07,4.010546506106137e-09,0.0179
1.125e-06,4.987031113797262e-09,0.0166
1.445e-06,5.937730408967919e-09,0.017
1.855e-06,7.354047626647628e-09,0.0164
2.382e-06,8.945404284822926e-09,0.016
3.059e-06,1.0322825641758292e-08,0.0159
3.928e-06,1.239234196047272e-08,0.0136
5.043e-06,1.4302234106154138e-08,0.0122
6.476e-06,1.6713148207424012e-08,0.0117
8.315e-06,1.8993705105350077e-08,0.0122
1.068e-05,2.2088218563654404e-08,0.0106
1.371e-05,2.4699957145434593e-08,0.0102
1.76e-05,2.7987046510769307e-08,0.0094
2.26e-05,3.174000450151596e-08,0.009
2.902e-05,3.5971874846300805e-08,0.0084
3.727e-05,3.9508005850775334e-08,0.0085
4.785e-05,4.391345611551048e-08,0.0083
6.144e-05,4.8984365068456506e-08,0.0079
7.889e-05,5.2830997217668e-08,0.0075
0.0001013,5.824815957868916e-08,0.0071
0.0001301,6.230112903357066e-08,0.0074
0.000167,6.721122715223555e-08,0.0068
0.0002145,7.256749617894001e-08,0.0063
0.0002754,7.716548320359496e-08,0.0062
0.0003536,8.120732310293535e-08,0.0065
0.000454,8.471222554700252e-08,0.006
0.0005829,8.819196927509843e-08,0.0058
0.0007485,8.99664062947605e-08,0.0056
0.0009611,9.053137170424135e-08,0.0058
0.001234,8.979116064385481e-08,0.0056
0.001585,8.867086633786546e-08,0.0057
0.002035,8.789234498105089e-08,0.0051
0.002249,9.958530384265006e-08,0.0074
0.002485,1.2337981557534094e-07,0.0067
0.002613,1.732973625913991e-07,0.0076
0.002747,5.712049543225302e-07,0.0037
0.003035,6.651379955037328e-07,0.0023
0.003355,7.626849179768025e-08,0.0107
0.003707,1.5334993558470698e-07,0.0063
0.004307,4.83244480488716e-07,0.0026
0.005531,8.27987299849784e-06,0.0004
0.007102,5.052322296642982e-07,0.0027
0.009119,1.0261908484089844e-06,0.0017
0.01059,1.461357301366234e-06,0.0018
0.01171,2.2772717318443706e-06,0.0017
0.01503,3.3096208546944794e-06,0.0008
0.0193,9.720028026987134e-06,0.0004
0.02187,6.181892912203256e-06,0.0008
0.02358,2.233463930142058e-06,0.0022
0.02418,3.9018782501620835e-06,0.0027
0.02479,6.0784681518700745e-06,0.002
0.02606,1.1829593696221362e-05,0.0008
0.027,3.1597028383052477e-06,0.0025
0.0285,3.732464795836374e-06,0.0018
0.03183,4.542765488674726e-06,0.0012
0.03431,5.61390624991059e-06,0.0012
0.04087,1.1236775746817524e-05,0.0006
0.04631,4.631557965495153e-05,0.0002
0.05248,7.945098255116709e-06,0.0008
0.05656,1.340151795142914e-05,0.0008
0.06738,5.2333721853120025e-05,0.0002
0.07202,5.720811648179258e-06,0.0013
0.0795,5.772358460610343e-06,0.0011
0.0825,5.861380836856677e-06,0.0018
0.08652,5.938167025314847e-06,0.0015
0.09804,6.097898069623983e-06,0.001
0.1111,6.297973939225382e-06,0.001
0.1168,6.400535813260915e-06,0.0015
0.1228,6.470402719060923e-06,0.0014
0.1291,6.5440966150608736e-06,0.0015
0.1357,6.618709152713897e-06,0.0014
0.1426,6.688960899176118e-06,0.0014
0.15,6.771474705678545e-06,0.0014
0.1576,6.84673341073033e-06,0.0015
0.1657,6.894745392173327e-06,0.0015
0.1742,6.941429851030432e-06,0.0014
0.1832,6.981722561976287e-06,0.0014
0.1925,7.030092058810608e-06,0.0014
0.2024,7.072194014323302e-06,0.0015
0.2128,7.094842570644278e-06,0.0014
0.2237,7.096494946972938e-06,0.0014
0.2352,7.117106056325665e-06,0.0014
0.2472,7.129184848761939e-06,0.0015
0.2732,7.089226139724668e-06,0.001
0.2872,7.0513466448288225e-06,0.0015
0.2945,7.013858019032092e-06,0.002
0.2972,6.998392749738062e-06,0.0037
0.2985,6.897530615611426e-06,0.0048
0.302,6.985700387186264e-06,0.0029
0.3337,6.880152937658118e-06,0.001
0.3688,6.641425993942908e-06,0.001
0.3877,6.4110438188996435e-06,0.0015
0.4076,6.215270740836498e-06,0.0015
0.4505,5.819632917746162e-06,0.0011
0.4979,5.161744569098951e-06,0.0012
0.5234,4.590289902907176e-06,0.0018
0.5502,4.137547779153651e-06,0.0018
0.5784,3.651461441005606e-06,0.0019
0.6081,3.1626001438899854e-06,0.0022
0.6393,2.660165249625167e-06,0.0023
0.6721,2.3161769072061307e-06,0.0024
0.7065,2.0751035531690677e-06,0.0028
0.7427,1.891352920597061e-06,0.0027
0.7808,1.7633334276759343e-06,0.0028
0.8209,1.6563568207912848e-06,0.0029
0.8629,1.554059506201538e-06,0.0031
0.9072,1.466637083136011e-06,0.008
0.9617,1.3749421358182199e-06,0.0029
1.003,1.2982399471854027e-06,0.0036
1.108,1.2377226202281518e-06,0.0023
1.165,1.1743245030917307e-06,0.0033
1.225,1.1386056691568713e-06,0.0034
1.287,1.076430618259945e-06,0.0035
1.353,1.0121050656719594e-06,0.0035
1.423,9.503207300623819e-07,0.0036
1.496,9.051510726806742e-07,0.0037
1.572,8.323536836438948e-07,0.0038
1.653,7.748502930554948e-07,0.0039
1.738,7.320034250070854e-07,0.0041
1.827,6.613262775918278e-07,0.0042
1.921,6.189779680607833e-07,0.0043
2.019,5.757544360149426e-07,0.0046
2.122,5.440593835908628e-07,0.0045
2.231,5.123707634873386e-07,0.0047
2.307,4.772096716840646e-07,0.0058
2.346,4.5531938976849397e-07,0.0084
2.365,4.485665904785253e-07,0.0132
2.385,4.3925484169124326e-07,0.0126
2.466,4.3079463454063925e-07,0.0064
2.592,4.042793566673871e-07,0.0052
2.725,3.66578637461269e-07,0.0055
2.865,3.3191668408002287e-07,0.0062
3.012,3.0292213978478867e-07,0.0059
3.166,2.8279351343731643e-07,0.006
3.329,2.667091760327168e-07,0.0063
3.679,2.4073758645110434e-07,0.0055
4.066,2.1242719309087275e-07,0.0049
4.493,1.9983594205607852e-07,0.0054
4.724,1.9231092875540914e-07,0.0071
4.966,1.9193459729015426e-07,0.007
5.22,1.9448660798094342e-07,0.0077
5.488,1.942646725535619e-07,0.0074
5.77,2.0372917042814063e-07,0.0068
6.065,2.1307411628451124e-07,0.0068
6.376,2.239833342012051e-07,0.0063
6.592,2.3298009023439318e-07,0.0077
6.703,2.3866904904429627e-07,0.0105
7.047,2.486911903829011e-07,0.006
7.408,2.7003811543896666e-07,0.0057
7.788,2.92028220115778e-07,0.0055
8.187,3.0679431030160104e-07,0.0052
8.607,3.366754735111149e-07,0.0049
9.048,3.714283593471756e-07,0.0046
9.512,4.2866666094109606e-07,0.0044
10.0,5.334539669080118e-07,0.004
10.51,8.331495202822523e-07,0.003
11.05,8.75991199499528e-07,0.0029
11.62,9.218621749698383e-07,0.0028
12.21,9.722005819263727e-07,0.0027
12.52,9.976755995100806e-07,0.0037
12.84,9.99218137627062e-07,0.0037
13.5,9.673774129823724e-07,0.0027
13.84,8.641447039717597e-07,0.0037
14.19,2.5553342519849634e-07,0.0067
14.55,0.0,0.0
14.92,0.0,0.0
15.68,0.0,0.0
16.49,0.0,0.0
16.9,0.0,0.0
17.33,0.0,0.0
19.64,0.0,0.0
