Energy,Value,Error
1e-07,2.85803407947438e-12,0.1047
4.14e-07,3.4092872249403435e-10,0.0233
5.316e-07,1.0114774239957414e-09,0.0425
6.826e-07,1.305451523727765e-09,0.0259
8.764e-07,1.6515469645674118e-09,0.0233
1.125e-06,2.061620417696366e-09,0.0225
1.445e-06,2.49207548355206e-09,0.0254
1.855e-06,3.025774664648214e-09,0.0249
2.382e-06,3.40975128621052e-09,0.0173
3.059e-06,3.870862731894995e-09,0.015
3.928e-06,4.317109107842511e-09,0.0147
5.043e-06,4.887206634957019e-09,0.0137
6.476e-06,5.3585760004467916e-09,0.0187
8.315e-06,5.941516348811629e-09,0.0162
1.068e-05,6.335020966576541e-09,0.025
1.371e-05,6.675604575016182e-09,0.0143
1.76e-05,7.055154553061557e-09,0.0137
2.26e-05,7.548739929204937e-09,0.0147
2.902e-05,7.976152453511873e-09,0.0158
3.727e-05,8.304761052783707e-09,0.0198
4.785e-05,8.62921903248953e-09,0.0147
6.144e-05,8.923877992415091e-09,0.0131
7.889e-05,9.247444566516109e-09,0.014
0.0001013,9.5439008946391e-09,0.0141
0.0001301,9.860522081921499e-09,0.0138
0.000167,1.0387582864986907e-08,0.0144
0.0002145,1.0543995512747826e-08,0.0168
0.0002754,1.0993704546951234e-08,0.0154
0.0003536,1.1484316099733294e-08,0.0144
0.000454,1.180994581481003e-08,0.013
0.0005829,1.2569940464908292e-08,0.014
0.0007485,1.3222421512078198e-08,0.0129
0.0009611,1.3889116772853231e-08,0.0122
0.001234,1.50329436457725e-08,0.0117
0.001585,1.6455507767878367e-08,0.0111
0.002035,1.8455699846241623e-08,0.0115
0.002249,1.9860615041593194e-08,0.0154
0.002485,2.1225914047260928e-08,0.0155
0.002613,2.1620334694566138e-08,0.0225
0.002747,2.316757161180591e-08,0.034
0.003035,2.4717654309384203e-08,0.0192
0.003355,2.6515072108075732e-08,0.0154
0.003707,2.8606965970306438e-08,0.0288
0.004307,3.181157132865417e-08,0.0107
0.005531,3.983607929757914e-08,0.0076
0.007102,5.7775796584354526e-08,0.0065
0.009119,1.03566746573742e-07,0.0047
0.01059,2.3537477425934058e-07,0.0041
0.01171,6.697033605662833e-07,0.0028
0.01503,1.5529134407690137e-05,0.0002
0.0193,6.121286987389078e-09,0.0202
0.02187,2.185820215698505e-08,0.0179
0.02358,3.3458921381900593e-08,0.0168
0.02418,3.941294096372959e-08,0.0276
0.02479,4.227216936429818e-08,0.0242
0.02606,4.9149714965402666e-08,0.0171
0.027,5.5725514309466865e-08,0.0196
0.0285,6.337703176700578e-08,0.0136
0.03183,7.771275535702739e-08,0.0082
0.03431,9.988602119939421e-08,0.0098
0.04087,1.5904143204701727e-07,0.0049
0.04631,2.459835210410628e-07,0.0054
0.05248,5.100267496121178e-07,0.0032
0.05656,1.8100069816597265e-06,0.0021
0.06738,1.6803448030234215e-05,0.0003
0.07202,4.238882361525039e-08,0.0134
0.0795,9.383344968680784e-08,0.0081
0.0825,1.4082642855826598e-07,0.0108
0.08652,1.6521027297839205e-07,0.0097
0.09804,2.974713009616316e-07,0.004
0.1111,3.1059659463532038e-06,0.0009
0.1168,4.823796712364299e-07,0.005
0.1228,1.74440642364425e-06,0.0023
0.1291,5.070269227993166e-06,0.0012
0.1357,2.9567621626143565e-05,0.0004
0.1426,3.4150896428074363e-06,0.0013
0.15,5.533170925371554e-07,0.0053
0.1576,2.2723978781242134e-05,0.0005
0.1657,2.2401398019871628e-07,0.0074
0.1742,1.254349313519259e-06,0.0025
0.1832,1.1533956542704618e-06,0.0034
0.1925,1.8214617659950454e-05,0.0006
0.2024,2.053229195280264e-05,0.0005
0.2128,8.134880632202606e-06,0.0008
0.2237,7.437694917285969e-07,0.0044
0.2352,2.088714823704458e-05,0.0005
0.2472,5.787324431108317e-07,0.0045
0.2732,8.930018290129276e-06,0.0006
0.2872,4.246848100154219e-06,0.0012
0.2945,6.682704829555328e-07,0.006
0.2972,8.679915776797226e-07,0.0088
0.2985,9.000210808393123e-07,0.0113
0.302,9.505292648325023e-07,0.0072
0.3337,3.8640642843911094e-06,0.001
0.3688,4.4906663632931e-06,0.0009
0.3877,2.5925742808828356e-06,0.0021
0.4076,1.3394451654876253e-05,0.0007
0.4505,2.114312437451576e-05,0.0003
0.4979,5.6680360954636e-06,0.0008
0.5234,8.104853866121852e-06,0.0009
0.5502,7.243472158683369e-06,0.0011
0.5784,2.3444585564079577e-05,0.0005
0.6081,1.1928524206703634e-05,0.0007
0.6393,5.519413189344371e-06,0.0011
0.6721,6.613274077662474e-06,0.001
0.7065,3.2749177256456365e-06,0.0016
0.7427,1.0759032202917719e-05,0.0008
0.7808,6.5502437736444505e-06,0.0009
0.8209,4.659393968497142e-06,0.0011
0.8629,2.64935063044217e-06,0.0016
0.9072,3.4361931881241904e-06,0.0012
0.9617,2.1318788616658456e-06,0.0016
1.003,1.2185766771114323e-06,0.0025
1.108,1.4579291521799004e-06,0.0014
1.165,6.715785242161447e-07,0.0029
1.225,4.0863797904419454e-07,0.0038
1.287,2.479853161880439e-07,0.0047
1.353,1.0831242644546933e-07,0.0086
1.423,1.9509120925650956e-07,0.0051
1.496,7.954315510565542e-08,0.0092
1.572,8.016335460167355e-08,0.0096
1.653,1.0857326287435707e-07,0.0068
1.738,6.441969169029118e-08,0.0093
1.827,5.165753017757159e-08,0.0104
1.921,6.123166971684517e-08,0.0087
2.019,6.299463990578151e-08,0.0082
2.122,4.0201620392484935e-08,0.0107
2.231,4.096394781298104e-08,0.0102
2.307,2.704189134625423e-08,0.0166
2.346,2.603334291355635e-08,0.0255
2.365,2.0432240057360917e-08,0.0373
2.385,3.459487680903399e-08,0.0264
2.466,2.3577052187286393e-08,0.0166
2.592,2.2934689119615114e-08,0.0135
2.725,2.331257955076809e-08,0.0133
2.865,1.583962544261707e-08,0.0159
3.012,1.3304131729407998e-08,0.0175
3.166,1.414478951488329e-08,0.0156
3.329,1.1187758342397063e-08,0.0179
3.679,8.034009134490027e-09,0.0158
4.066,6.804994806339877e-09,0.0168
4.493,6.446125601407643e-09,0.0167
4.724,6.1977927088884755e-09,0.0237
4.966,6.004429000389697e-09,0.0254
5.22,5.566016225570114e-09,0.0253
5.488,4.983093628691511e-09,0.0258
5.77,4.959548519349457e-09,0.0257
6.065,4.867228589785832e-09,0.0252
6.376,4.738093610071115e-09,0.0266
6.592,5.305642631408916e-09,0.0288
6.703,5.297790669441147e-09,0.0404
7.047,5.698765161507554e-09,0.023
7.408,6.138714765055759e-09,0.0219
7.788,6.957297523919559e-09,0.0199
8.187,7.363063447238425e-09,0.0207
8.607,9.51945288962854e-09,0.018
9.048,9.947863913043881e-09,0.0173
9.512,1.0206452857919316e-08,0.0171
10.0,1.5225140630101543e-08,0.0144
10.51,2.3049694058394345e-08,0.0111
11.05,2.616337625171899e-08,0.01
11.62,2.9751483718412273e-08,0.0124
12.21,3.181200005120871e-08,0.0089
12.52,3.0991049643609834e-08,0.0125
12.84,3.136869461003284e-08,0.0127
13.5,3.157624639350041e-08,0.009
13.84,2.7317684548538032e-08,0.0132
14.19,4.893383229184769e-09,0.0336
14.55,0.0,0.0
14.92,0.0,0.0
15.68,0.0,0.0
16.49,0.0,0.0
16.9,0.0,0.0
17.33,0.0,0.0
19.64,0.0,0.0
