Energy,Value,Error
1e-07,2.2488492097086883e-15,1.0
4.14e-07,2.934379080792805e-13,0.2981
5.316e-07,6.934256782769043e-13,0.3976
6.826e-07,1.668821783111267e-12,0.2532
8.764e-07,5.207120179579861e-12,0.1494
1.125e-06,1.6794057737787375e-11,0.0827
1.445e-06,2.916369718633029e-11,0.0631
1.855e-06,4.842310826058622e-11,0.0494
2.382e-06,7.482130740411496e-11,0.0414
3.059e-06,1.3217276824518416e-10,0.0317
3.928e-06,2.0710613666310633e-10,0.0258
5.043e-06,3.178743377236982e-10,0.0214
6.476e-06,4.872174243640405e-10,0.0172
8.315e-06,7.331269400228128e-10,0.0137
1.068e-05,1.1447885819505047e-09,0.0113
1.371e-05,1.7274610806032878e-09,0.0089
1.76e-05,2.5730120909868236e-09,0.0074
2.26e-05,3.944211314090649e-09,0.0061
2.902e-05,5.944919598157862e-09,0.0051
3.727e-05,8.93360925578147e-09,0.0043
4.785e-05,1.3185722331304742e-08,0.0036
6.144e-05,1.9753272426981645e-08,0.0029
7.889e-05,2.900644713146736e-08,0.0024
0.0001013,4.288892151539293e-08,0.002
0.0001301,6.287143406751109e-08,0.0017
0.000167,9.144483544537473e-08,0.0014
0.0002145,1.3172154298489441e-07,0.0012
0.0002754,1.8750626618945398e-07,0.001
0.0003536,2.614437221715163e-07,0.0009
0.000454,3.5493214970273626e-07,0.0007
0.0005829,4.723900992998822e-07,0.0006
0.0007485,6.153112561597948e-07,0.0006
0.0009611,7.849612111017098e-07,0.0005
0.001234,9.753989030578428e-07,0.0004
0.001585,1.1482102992509886e-06,0.0004
0.002035,1.3001967295722247e-06,0.0003
0.002249,1.8228549453567051e-06,0.0004
0.002485,9.237887941833894e-06,0.0002
0.002613,5.121059321176475e-05,0.0001
0.002747,0.000119383519102517,0.0001
0.003035,0.00015291766804566363,0.0
0.003355,4.0661372054429456e-05,0.0001
0.003707,2.4943181536837344e-06,0.0005
0.004307,9.50928232337625e-08,0.0028
0.005531,9.673964660855613e-07,0.0006
0.007102,9.895811111821234e-08,0.0021
0.009119,1.9005558065336969e-06,0.0004
0.01059,5.956061093264778e-06,0.0003
0.01171,8.307519426410216e-06,0.0003
0.01503,7.091804308856131e-06,0.0002
0.0193,6.077416970826619e-07,0.0005
0.02187,1.8182757915218354e-07,0.0016
0.02358,3.120396523304477e-07,0.0017
0.02418,3.7289046108382463e-07,0.0028
0.02479,3.3397056784740597e-07,0.0032
0.02606,2.3287258966780717e-07,0.0029
0.027,1.2737413610328466e-07,0.0049
0.0285,6.374990093849922e-08,0.0057
0.03183,4.697970919156181e-08,0.0056
0.03431,6.538992292787204e-08,0.0046
0.04087,1.5441178761781547e-07,0.0018
0.04631,6.280304158057906e-07,0.0009
0.05248,7.565187843315096e-07,0.0009
0.05656,3.783430820645998e-07,0.0021
0.06738,1.2466707621585314e-07,0.0024
0.07202,2.1249895936860043e-07,0.0029
0.0795,3.7401899416576007e-07,0.0016
0.0825,2.562366130921819e-07,0.0034
0.08652,4.540799180177098e-07,0.0023
0.09804,4.968489686303264e-07,0.0012
0.1111,8.946213790337636e-07,0.0008
0.1168,2.3884335490574586e-07,0.0028
0.1228,5.726320779363406e-07,0.0016
0.1291,3.0792150955751406e-07,0.0024
0.1357,2.8626773495957845e-07,0.0027
0.1426,3.059926610665995e-07,0.0027
0.15,4.315364543547807e-07,0.0023
0.1576,4.790319856317316e-07,0.0021
0.1657,9.219304702877703e-07,0.0014
0.1742,5.006422772043505e-07,0.0019
0.1832,2.991619481980064e-06,0.0006
0.1925,5.692529974748481e-07,0.0017
0.2024,4.7572488347365617e-07,0.0021
0.2128,9.499445374608322e-07,0.0013
0.2237,7.917645004604374e-07,0.0015
0.2352,5.650529349304693e-07,0.0018
0.2472,5.301366504705432e-07,0.0019
0.2732,9.157443730095394e-07,0.0009
0.2872,7.773531933695718e-07,0.0015
0.2945,2.033564246850884e-06,0.0011
0.2972,5.866182658164331e-07,0.0042
0.2985,5.449546595043394e-07,0.006
0.302,4.388575875446839e-07,0.0044
0.3337,7.743286555217761e-07,0.001
0.3688,8.240342430316541e-07,0.0009
0.3877,5.17466381280231e-07,0.0016
0.4076,2.7936373561537084e-07,0.0024
0.4505,2.513565870505934e-07,0.0019
0.4979,3.2449238506939877e-07,0.0016
0.5234,2.465466389949821e-07,0.0026
0.5502,2.677014159726836e-07,0.0025
0.5784,4.078079474515384e-07,0.0018
0.6081,1.9923044875049899e-07,0.003
0.6393,3.165416771116709e-07,0.0021
0.6721,2.0671628063925626e-07,0.0028
0.7065,2.450052994679695e-07,0.0024
0.7427,1.9842485297149173e-07,0.0028
0.7808,1.7365837871096306e-07,0.003
0.8209,1.8654508015787837e-07,0.0029
0.8629,1.4761217496375984e-07,0.0034
0.9072,1.78369047193503e-07,0.0029
0.9617,1.699918548209356e-07,0.0027
1.003,1.5887705637196128e-07,0.0035
1.108,1.432015411419295e-07,0.0023
1.165,1.299901358521023e-07,0.0036
1.225,1.1901471372105897e-07,0.0035
1.287,1.0982886813800658e-07,0.0036
1.353,1.0196574916595818e-07,0.0039
1.423,9.541547628386103e-08,0.0039
1.496,9.045154230563989e-08,0.0046
1.572,8.425385706309717e-08,0.0042
1.653,8.033696179341701e-08,0.0043
1.738,7.43841518811314e-08,0.0045
1.827,7.102707657141317e-08,0.0046
1.921,6.716382843311013e-08,0.0049
2.019,6.328143686195337e-08,0.0049
2.122,5.968060479512471e-08,0.0049
2.231,5.573390334241488e-08,0.0051
2.307,5.3788183517687645e-08,0.0069
2.346,5.255070579975491e-08,0.0092
2.365,5.04112698514958e-08,0.0141
2.385,5.165725097768035e-08,0.0133
2.466,4.9606146785578716e-08,0.0065
2.592,4.686411311280452e-08,0.0055
2.725,4.448621249123151e-08,0.0056
2.865,4.196573395541322e-08,0.0057
3.012,3.997325142070039e-08,0.0064
3.166,3.71132644778274e-08,0.0061
3.329,3.538872380976619e-08,0.0065
3.679,3.2449353611329153e-08,0.0047
4.066,2.9522767703903283e-08,0.0048
4.493,2.6766528257446657e-08,0.0048
4.724,2.5181075999791924e-08,0.0069
4.966,2.4701759807553034e-08,0.007
5.22,2.4012726745059908e-08,0.0071
5.488,2.3794358961465563e-08,0.0072
5.77,2.3417928241709658e-08,0.0075
6.065,2.2871112999512393e-08,0.0071
6.376,2.281188049360594e-08,0.0067
6.592,2.2865572224858694e-08,0.0087
6.703,2.3004307020048414e-08,0.0118
7.047,2.329259488463591e-08,0.0069
7.408,2.3412430913383837e-08,0.0067
7.788,2.396469337806553e-08,0.0065
8.187,2.449430882560625e-08,0.0065
8.607,2.486592823543052e-08,0.0062
9.048,2.6448773158201122e-08,0.0058
9.512,2.870321791949294e-08,0.0055
10.0,3.912819247854796e-08,0.0046
10.51,5.8390789155829894e-08,0.0037
11.05,6.330408583049974e-08,0.0035
11.62,6.90084434166784e-08,0.0033
12.21,7.560521377771414e-08,0.0032
12.52,8.084172506292515e-08,0.0044
12.84,8.346325486446886e-08,0.0043
13.5,8.421908450719285e-08,0.003
13.84,7.242354465559236e-08,0.0042
14.19,1.4312335119652405e-08,0.0093
14.55,0.0,0.0
14.92,0.0,0.0
15.68,0.0,0.0
16.49,0.0,0.0
16.9,0.0,0.0
17.33,0.0,0.0
19.64,0.0,0.0
