Energy,Value,Error
1e-07,1.55345e-14,1.0
4.14e-07,4.16886e-13,0.2981
5.316e-07,1.73374e-13,0.3976
6.826e-07,4.17235e-13,0.2532
8.764e-07,1.30133e-12,0.1494
1.125e-06,4.19374e-12,0.0827
1.445e-06,7.30044e-12,0.0631
1.855e-06,1.20949e-11,0.0494
2.382e-06,1.87095e-11,0.0414
3.059e-06,3.30627e-11,0.0317
3.928e-06,5.17853e-11,0.0258
5.043e-06,7.94275e-11,0.0214
6.476e-06,1.21854e-10,0.0172
8.315e-06,1.83251e-10,0.0137
1.068e-05,2.86554e-10,0.0113
1.371e-05,4.31438e-10,0.0089
1.76e-05,6.4267e-10,0.0074
2.26e-05,9.86254e-10,0.0061
2.902e-05,1.48644e-09,0.0051
3.727e-05,2.23522e-09,0.0043
4.785e-05,3.29488e-09,0.0036
6.144e-05,4.93812e-09,0.0029
7.889e-05,7.25142e-09,0.0024
0.0001013,1.07236e-08,0.002
0.0001301,1.57315e-08,0.0017
0.000167,2.28329e-08,0.0014
0.0002145,3.2972e-08,0.0012
0.0002754,4.68606e-08,0.001
0.0003536,6.53457e-08,0.0009
0.000454,8.87085e-08,0.0007
0.0005829,1.18059e-07,0.0006
0.0007485,1.53862e-07,0.0006
0.0009611,1.96246e-07,0.0005
0.001234,2.43789e-07,0.0004
0.001585,2.87424e-07,0.0004
0.002035,3.24934e-07,0.0003
0.002249,1.82267e-07,0.0004
0.002485,9.21821e-07,0.0002
0.002613,2.57212e-06,0.0001
0.002747,5.97042e-06,0.0001
0.003035,1.52462e-05,0.0
0.003355,4.07591e-06,0.0001
0.003707,2.48861e-07,0.0005
0.004307,1.42657e-08,0.0028
0.005531,2.41972e-07,0.0006
0.007102,2.47403e-08,0.0021
0.009119,4.75108e-07,0.0004
0.01059,8.90729e-07,0.0003
0.01171,8.3518e-07,0.0003
0.01503,1.77015e-06,0.0002
0.0193,1.5197e-07,0.0005
0.02187,2.27304e-08,0.0016
0.02358,2.34913e-08,0.0017
0.02418,9.3696e-09,0.0028
0.02479,8.32071e-09,0.0032
0.02606,1.16346e-08,0.0029
0.027,4.51354e-09,0.0049
0.0285,3.44678e-09,0.0057
0.03183,5.1915e-09,0.0056
0.03431,4.90605e-09,0.0046
0.04087,2.70158e-08,0.0018
0.04631,7.84797e-08,0.0009
0.05248,9.4621e-08,0.0009
0.05656,2.83265e-08,0.0021
0.06738,2.18225e-08,0.0024
0.07202,1.41515e-08,0.0029
0.0795,3.6958e-08,0.0016
0.0825,9.49133e-09,0.0034
0.08652,2.16039e-08,0.0023
0.09804,6.21061e-08,0.0012
0.1111,1.11877e-07,0.0008
0.1168,1.19499e-08,0.0028
0.1228,2.86854e-08,0.0016
0.1291,1.54054e-08,0.0024
0.1357,1.42731e-08,0.0027
0.1426,1.51763e-08,0.0027
0.15,2.18322e-08,0.0023
0.1576,2.36761e-08,0.0021
0.1657,4.6206e-08,0.0014
0.1742,2.50447e-08,0.0019
0.1832,1.50701e-07,0.0006
0.1925,2.81881e-08,0.0017
0.2024,2.38575e-08,0.0021
0.2128,4.75987e-08,0.0013
0.2237,3.95511e-08,0.0015
0.2352,2.83263e-08,0.0018
0.2472,2.63804e-08,0.0019
0.2732,9.15803e-08,0.0009
0.2872,3.8848e-08,0.0015
0.2945,5.10428e-08,0.0011
0.2972,5.35366e-09,0.0042
0.2985,2.37852e-09,0.006
0.302,5.1158e-09,0.0044
0.3337,7.72899e-08,0.001
0.3688,8.24134e-08,0.0009
0.3877,2.58616e-08,0.0016
0.4076,1.39834e-08,0.0024
0.4505,2.51537e-08,0.0019
0.4979,3.24626e-08,0.0016
0.5234,1.23142e-08,0.0026
0.5502,1.33679e-08,0.0025
0.5784,2.03838e-08,0.0018
0.6081,9.9762e-09,0.003
0.6393,1.5838e-08,0.0021
0.6721,1.03427e-08,0.0028
0.7065,1.22297e-08,0.0024
0.7427,9.91509e-09,0.0028
0.7808,8.68758e-09,0.003
0.8209,9.3426e-09,0.0029
0.8629,7.36548e-09,0.0034
0.9072,8.92989e-09,0.0029
0.9617,9.91726e-09,0.0027
1.003,6.6805e-09,0.0035
1.108,1.42573e-08,0.0023
1.165,6.52089e-09,0.0036
1.225,5.97689e-09,0.0035
1.287,5.42259e-09,0.0036
1.353,5.09935e-09,0.0039
1.423,4.81304e-09,0.0039
1.496,4.52507e-09,0.0046
1.572,4.1751e-09,0.0042
1.653,4.03638e-09,0.0043
1.738,3.72986e-09,0.0045
1.827,3.54711e-09,0.0046
1.921,3.36965e-09,0.0049
2.019,3.14866e-09,0.0049
2.122,2.96951e-09,0.0049
2.231,2.79176e-09,0.0051
2.307,1.8018e-09,0.0069
2.346,8.80948e-10,0.0092
2.365,4.06631e-10,0.0141
2.385,4.35011e-10,0.0133
2.466,1.65676e-09,0.0065
2.592,2.33535e-09,0.0055
2.725,2.22603e-09,0.0056
2.865,2.10248e-09,0.0057
3.012,2.0001e-09,0.0064
3.166,1.85064e-09,0.0061
3.329,1.77662e-09,0.0065
3.679,3.24393e-09,0.0047
4.066,2.95283e-09,0.0048
4.493,2.67293e-09,0.0048
4.724,1.26246e-09,0.0069
4.966,1.23407e-09,0.007
5.22,1.19782e-09,0.0071
5.488,1.1913e-09,0.0072
5.77,1.17343e-09,0.0075
6.065,1.14041e-09,0.0071
6.376,1.14074e-09,0.0067
6.592,7.61786e-10,0.0087
6.703,3.84135e-10,0.0118
7.047,1.16572e-09,0.0069
7.408,1.16965e-09,0.0067
7.788,1.1988e-09,0.0065
8.187,1.22382e-09,0.0065
8.607,1.244e-09,0.0062
9.048,1.32159e-09,0.0058
9.512,1.43546e-09,0.0055
10.0,1.95762e-09,0.0046
10.51,2.90448e-09,0.0037
11.05,3.17174e-09,0.0035
11.62,3.47094e-09,0.0033
12.21,3.74454e-09,0.0032
12.52,2.02687e-09,0.0044
12.84,2.10644e-09,0.0043
13.5,4.22143e-09,0.003
13.84,1.80141e-09,0.0042
14.19,3.57444e-10,0.0093
14.55,0.0,0.0
14.92,0.0,0.0
15.68,0.0,0.0
16.49,0.0,0.0
16.9,0.0,0.0
17.33,0.0,0.0
19.64,0.0,0.0
