Energy,Value,Error
1e-07,0.0,0.0
4.14e-07,1.52212e-12,0.1278
5.316e-07,2.6945e-12,0.1113
6.826e-07,6.36755e-12,0.068
8.764e-07,1.48943e-11,0.0489
1.125e-06,3.08811e-11,0.0368
1.445e-06,3.98439e-11,0.0325
1.855e-06,5.98083e-11,0.0297
2.382e-06,7.11315e-11,0.0258
3.059e-06,1.00812e-10,0.0245
3.928e-06,1.32934e-10,0.0204
5.043e-06,1.69136e-10,0.0173
6.476e-06,2.26403e-10,0.0161
8.315e-06,2.86377e-10,0.014
1.068e-05,3.8447e-10,0.0122
1.371e-05,4.99349e-10,0.0107
1.76e-05,6.43404e-10,0.0099
2.26e-05,8.38082e-10,0.0084
2.902e-05,1.07964e-09,0.0074
3.727e-05,1.39341e-09,0.0065
4.785e-05,1.80506e-09,0.0059
6.144e-05,2.3245e-09,0.0051
7.889e-05,2.99136e-09,0.0049
0.0001013,3.84656e-09,0.0041
0.0001301,4.89659e-09,0.0036
0.000167,6.23726e-09,0.0031
0.0002145,7.98903e-09,0.0029
0.0002754,1.01643e-08,0.0025
0.0003536,1.28538e-08,0.0023
0.000454,1.61698e-08,0.002
0.0005829,2.02553e-08,0.0018
0.0007485,2.53214e-08,0.0016
0.0009611,3.173e-08,0.0014
0.001234,3.93659e-08,0.0013
0.001585,4.87913e-08,0.0011
0.002035,6.04412e-08,0.001
0.002249,2.80333e-08,0.0015
0.002485,3.039e-08,0.0014
0.002613,1.62662e-08,0.0019
0.002747,1.69023e-08,0.0019
0.003035,3.58739e-08,0.0013
0.003355,3.91568e-08,0.0012
0.003707,4.25452e-08,0.0012
0.004307,7.09743e-08,0.0009
0.005531,1.40544e-07,0.0006
0.007102,1.73748e-07,0.0006
0.009119,2.14895e-07,0.0005
0.01059,1.51645e-07,0.0006
0.01171,1.13174e-07,0.0007
0.01503,3.41055e-07,0.0004
0.0193,3.94219e-07,0.0003
0.02187,2.3993e-07,0.0004
0.02358,1.65384e-07,0.0005
0.02418,5.07015e-08,0.0009
0.02479,5.34054e-08,0.0009
0.02606,1.13634e-07,0.0006
0.027,8.85815e-08,0.0007
0.0285,1.24338e-07,0.0006
0.03183,2.80369e-07,0.0004
0.03431,2.02782e-07,0.0004
0.04087,5.15526e-07,0.0003
0.04631,1.41418e-06,0.0002
0.05248,8.72069e-07,0.0002
0.05656,3.59361e-08,0.0016
0.06738,5.67672e-07,0.0003
0.07202,3.36216e-07,0.0004
0.0795,5.49699e-07,0.0003
0.0825,2.19412e-07,0.0004
0.08652,3.28249e-07,0.0003
0.09804,1.53807e-06,0.0002
0.1111,2.07139e-08,0.0021
0.1168,3.06296e-08,0.0015
0.1228,5.1032e-08,0.0011
0.1291,7.64633e-08,0.0008
0.1357,1.77777e-07,0.0005
0.1426,4.86867e-07,0.0003
0.15,3.32833e-08,0.0015
0.1576,5.51121e-08,0.0012
0.1657,1.33761e-07,0.0007
0.1742,3.22476e-07,0.0004
0.1832,5.66051e-08,0.0012
0.1925,1.22287e-07,0.0007
0.2024,1.58437e-07,0.0006
0.2128,1.81539e-07,0.0006
0.2237,1.57072e-07,0.0006
0.2352,2.22704e-07,0.0005
0.2472,1.35315e-07,0.0006
0.2732,3.05174e-07,0.0004
0.2872,2.13947e-07,0.0005
0.2945,1.4272e-07,0.0006
0.2972,7.11468e-08,0.0008
0.2985,3.82371e-08,0.0011
0.302,1.17038e-07,0.0006
0.3337,8.22588e-07,0.0002
0.3688,1.35293e-06,0.0002
0.3877,1.28782e-07,0.0008
0.4076,2.76055e-07,0.0005
0.4505,9.09808e-07,0.0002
0.4979,2.15431e-06,0.0002
0.5234,6.23025e-07,0.0003
0.5502,6.52957e-07,0.0003
0.5784,6.8043e-07,0.0003
0.6081,7.0852e-07,0.0003
0.6393,7.30708e-07,0.0003
0.6721,7.48673e-07,0.0003
0.7065,7.60478e-07,0.0003
0.7427,7.66371e-07,0.0003
0.7808,7.62684e-07,0.0003
0.8209,7.46673e-07,0.0003
0.8629,7.12433e-07,0.0003
0.9072,6.72243e-07,0.0003
0.9617,7.15531e-07,0.0003
1.003,4.47763e-07,0.0004
1.108,9.28729e-07,0.0003
1.165,4.50395e-07,0.0004
1.225,4.28447e-07,0.0004
1.287,3.96444e-07,0.0004
1.353,3.79375e-07,0.0004
1.423,3.62478e-07,0.0004
1.496,3.44349e-07,0.0004
1.572,3.31955e-07,0.0004
1.653,3.28763e-07,0.0004
1.738,3.19174e-07,0.0004
1.827,3.0731e-07,0.0004
1.921,2.96006e-07,0.0005
2.019,2.7843e-07,0.0005
2.122,2.68994e-07,0.0005
2.231,2.61621e-07,0.0005
2.307,1.69592e-07,0.0006
2.346,8.31094e-08,0.0008
2.365,3.95178e-08,0.0012
2.385,4.10621e-08,0.0012
2.466,1.59785e-07,0.0006
2.592,2.31062e-07,0.0005
2.725,2.24654e-07,0.0005
2.865,2.12973e-07,0.0005
3.012,2.01226e-07,0.0005
3.166,1.94253e-07,0.0005
3.329,1.89367e-07,0.0005
3.679,3.44133e-07,0.0004
4.066,3.11083e-07,0.0004
4.493,2.85013e-07,0.0004
4.724,1.34766e-07,0.0006
4.966,1.2921e-07,0.0006
5.22,1.23475e-07,0.0006
5.488,1.20969e-07,0.0006
5.77,1.18731e-07,0.0006
6.065,1.15695e-07,0.0006
6.376,1.13972e-07,0.0006
6.592,7.52369e-08,0.0007
6.703,3.75907e-08,0.0011
7.047,1.12328e-07,0.0006
7.408,1.12226e-07,0.0006
7.788,1.13598e-07,0.0006
8.187,1.15836e-07,0.0006
8.607,1.20539e-07,0.0006
9.048,1.28894e-07,0.0005
9.512,1.3727e-07,0.0005
10.0,1.62024e-07,0.0005
10.51,3.02172e-07,0.0003
11.05,3.23826e-07,0.0003
11.62,3.53213e-07,0.0003
12.21,3.64326e-07,0.0003
12.52,1.90827e-07,0.0004
12.84,1.94889e-07,0.0004
13.5,3.91443e-07,0.0003
13.84,1.85958e-07,0.0004
14.19,7.23199e-08,0.0007
14.55,0.0,0.0
14.92,0.0,0.0
15.68,0.0,0.0
16.49,0.0,0.0
16.9,0.0,0.0
17.33,0.0,0.0
19.64,0.0,0.0
