Energy,Value,Error
1e-07,6.29434573808567e-12,0.0278
4.14e-07,9.641754496121204e-10,0.0058
5.316e-07,3.2345399786534494e-09,0.0069
6.826e-07,4.506320778841995e-09,0.0059
8.764e-07,5.939373330481718e-09,0.0052
1.125e-06,7.669922023106859e-09,0.0048
1.445e-06,9.528843490597468e-09,0.0044
1.855e-06,1.155938613178923e-08,0.0038
2.382e-06,1.3586128941496336e-08,0.0032
3.059e-06,1.5733671203298616e-08,0.003
3.928e-06,1.8013430302943705e-08,0.0029
5.043e-06,2.005480812704166e-08,0.0029
6.476e-06,2.1928222694909186e-08,0.003
8.315e-06,2.402458874772085e-08,0.003
1.068e-05,2.6034577913104586e-08,0.003
1.371e-05,2.7511178454875057e-08,0.0029
1.76e-05,2.9019742511437056e-08,0.0031
2.26e-05,3.067374203711749e-08,0.0034
2.902e-05,3.198055907750179e-08,0.003
3.727e-05,3.31402683240045e-08,0.0029
4.785e-05,3.4280284841587456e-08,0.0029
6.144e-05,3.5555666359580564e-08,0.0032
7.889e-05,3.651596573517776e-08,0.0029
0.0001013,3.7622194269174756e-08,0.0029
0.0001301,3.8635068737611785e-08,0.0032
0.000167,4.0026284243852304e-08,0.003
0.0002145,4.1042933888266095e-08,0.003
0.0002754,4.242244943813334e-08,0.0029
0.0003536,4.4122681560985625e-08,0.0028
0.000454,4.618917273297776e-08,0.0027
0.0005829,4.877671154664553e-08,0.0028
0.0007485,5.1644122856338625e-08,0.0026
0.0009611,5.567278371452289e-08,0.0026
0.001234,6.174817711493259e-08,0.0026
0.001585,7.619660712346047e-08,0.0022
0.002035,8.436549522865514e-08,0.0022
0.002249,9.067770008453226e-08,0.0032
0.002485,9.534700191783978e-08,0.0032
0.002613,9.806211792058882e-08,0.0043
0.002747,1.010751347802322e-07,0.0043
0.003035,1.0510118324021068e-07,0.003
0.003355,1.1021510250651674e-07,0.0029
0.003707,1.1590624710587064e-07,0.0028
0.004307,1.2403455198989434e-07,0.0022
0.005531,1.3799148655848437e-07,0.0016
0.007102,1.586558477110672e-07,0.0015
0.009119,1.8562929231486658e-07,0.0014
0.01059,2.1234568863935526e-07,0.0016
0.01171,2.3446923677219157e-07,0.002
0.01503,2.847586889367732e-07,0.0011
0.0193,4.769754553711008e-07,0.0008
0.02187,1.1867460463828766e-06,0.0007
0.02358,4.923909813565731e-06,0.0004
0.02418,3.990854428851154e-05,0.0002
0.02479,0.00011726383829095665,0.0001
0.02606,4.8735593819834545e-05,0.0001
0.027,3.2005096109948323e-07,0.0025
0.0285,1.1361652875209182e-08,0.0126
0.03183,5.679237367424891e-08,0.0044
0.03431,1.684393126839873e-07,0.0028
0.04087,3.441208988615306e-07,0.0013
0.04631,5.504377935774369e-07,0.0012
0.05248,7.402572403248741e-07,0.001
0.05656,1.0102126927228911e-06,0.0011
0.06738,1.5551550077115088e-06,0.0006
0.07202,5.631076017243544e-06,0.0004
0.0795,1.0799775686290723e-05,0.0002
0.0825,3.1378782295334154e-05,0.0002
0.08652,5.562714927519987e-07,0.0015
0.09804,6.016578042024e-07,0.0011
0.1111,1.2634826728838796e-06,0.0007
0.1168,1.941309050978816e-06,0.0009
0.1228,2.749374183310617e-06,0.0008
0.1291,1.4162002885045238e-05,0.0003
0.1357,6.632046692824183e-06,0.0004
0.1426,2.4622687850209997e-05,0.0002
0.15,7.100105127262379e-07,0.0017
0.1576,1.7424461971778234e-06,0.0011
0.1657,4.139189672156609e-06,0.0006
0.1742,1.2922982328133507e-05,0.0003
0.1832,1.184820353774609e-05,0.0003
0.1925,2.3521487569182735e-05,0.0002
0.2024,1.2472994976869936e-06,0.0012
0.2128,2.938861413292165e-06,0.0008
0.2237,1.3905320123152738e-05,0.0003
0.2352,2.7000211782563845e-06,0.0008
0.2472,9.08732480197909e-06,0.0004
0.2732,1.4865448297187293e-05,0.0002
0.2872,1.8641829232057264e-05,0.0002
0.2945,7.0564473789395345e-06,0.0007
0.2972,1.4112933211838399e-05,0.0008
0.2985,1.796681044322063e-05,0.001
0.302,2.234846964149614e-05,0.0005
0.3337,2.7902917608121108e-05,0.0001
0.3688,2.4862290189768882e-05,0.0001
0.3877,3.363323384067268e-05,0.0002
0.4076,2.2018419003705284e-06,0.0009
0.4505,5.756688096831876e-06,0.0003
0.4979,9.368712282842084e-06,0.0003
0.5234,8.815831249740017e-06,0.0004
0.5502,1.145397352504133e-05,0.0004
0.5784,1.3195509445590693e-05,0.0003
0.6081,2.4145822925639602e-05,0.0002
0.6393,3.177588376203273e-05,0.0002
0.6721,2.7114735510692622e-05,0.0002
0.7065,1.23627938798403e-05,0.0003
0.7427,4.2160145571552215e-06,0.0005
0.7808,1.7079711466174713e-06,0.0009
0.8209,1.8676791353344429e-06,0.0009
0.8629,3.7122493568494056e-06,0.0006
0.9072,2.804363490241586e-06,0.0007
0.9617,4.2571241523841005e-06,0.0004
1.003,1.0307424013938382e-06,0.0012
1.108,1.2103625311460245e-06,0.0007
1.165,1.4784339908291018e-06,0.0009
1.225,1.6452947001417685e-06,0.0008
1.287,4.206380897806672e-07,0.0018
1.353,5.665499244842498e-07,0.0014
1.423,4.787148742182528e-07,0.0015
1.496,2.984135118189701e-07,0.002
1.572,3.5502615073300334e-07,0.0018
1.653,3.4926768704616994e-07,0.0018
1.738,3.4887676110581537e-07,0.0019
1.827,2.952708453965063e-07,0.002
1.921,1.9817101516781174e-07,0.0024
2.019,1.3159639143051087e-07,0.0031
2.122,1.3360270847857556e-07,0.003
2.231,1.2291819554385615e-07,0.0032
2.307,1.406636525740945e-07,0.0034
2.346,9.535682611134847e-08,0.0061
2.365,1.5080573074397565e-07,0.0064
2.385,1.1424418736558182e-07,0.0077
2.466,7.591857932481116e-08,0.0048
2.592,6.017614202309255e-08,0.0048
2.725,7.158426589908557e-08,0.0046
2.865,5.71260369838154e-08,0.0045
3.012,5.1824528036850146e-08,0.006
3.166,3.9700467958939074e-08,0.0062
3.329,4.526721769083099e-08,0.005
3.679,3.729085362763139e-08,0.004
4.066,2.5870852039429638e-08,0.0049
4.493,2.669172421615746e-08,0.0047
4.724,2.262319599867243e-08,0.0072
4.966,2.1217487983668848e-08,0.0076
5.22,2.0806004724940208e-08,0.0073
5.488,2.0169978555902278e-08,0.0089
5.77,1.9359769293867065e-08,0.0072
6.065,1.884174917669075e-08,0.0072
6.376,1.923007889915739e-08,0.0073
6.592,1.8923364669366086e-08,0.0086
6.703,1.9551579928684985e-08,0.0124
7.047,2.0028050952772502e-08,0.0076
7.408,2.0960796203623438e-08,0.007
7.788,2.1821504541677136e-08,0.0064
8.187,2.3140318866255804e-08,0.0061
8.607,2.4478347569445795e-08,0.0058
9.048,2.7234477373722557e-08,0.0054
9.512,3.0013144915651654e-08,0.0052
10.0,3.9341060782864696e-08,0.0045
10.51,5.7408321428028215e-08,0.0035
11.05,5.991488406273909e-08,0.0034
11.62,6.385091251533163e-08,0.0032
12.21,6.759734529817347e-08,0.0032
12.52,6.85930392730993e-08,0.0044
12.84,6.765966245134843e-08,0.0043
13.5,6.403928667114546e-08,0.0032
13.84,5.878279409564435e-08,0.0045
14.19,1.2103165388011695e-08,0.0098
14.55,0.0,0.0
14.92,0.0,0.0
15.68,0.0,0.0
16.49,0.0,0.0
16.9,0.0,0.0
17.33,0.0,0.0
19.64,0.0,0.0
