Energy,Value,Error
1e-07,7.136442738496075e-14,0.1943
4.14e-07,2.646850953028128e-11,0.0275
5.316e-07,1.3609739808316612e-10,0.0327
6.826e-07,2.1810894948175205e-10,0.0277
8.764e-07,3.265777028122197e-10,0.0196
1.125e-06,5.031161297421049e-10,0.0159
1.445e-06,7.40317778965092e-10,0.0135
1.855e-06,1.0813756181772976e-09,0.0118
2.382e-06,1.52880292483976e-09,0.01
3.059e-06,2.0463558786728113e-09,0.0087
3.928e-06,2.7672634987093477e-09,0.0078
5.043e-06,3.6939777480433702e-09,0.0081
6.476e-06,4.875053070314475e-09,0.0066
8.315e-06,6.287934440590531e-09,0.0061
1.068e-05,8.068379670125208e-09,0.0053
1.371e-05,1.0096388961679895e-08,0.0048
1.76e-05,1.2497447262791323e-08,0.0044
2.26e-05,1.5417294610783834e-08,0.0042
2.902e-05,1.876506728168296e-08,0.0038
3.727e-05,2.2584499285900026e-08,0.0034
4.785e-05,2.6855392303046975e-08,0.0032
6.144e-05,3.1929680898684155e-08,0.0032
7.889e-05,3.690077591222545e-08,0.0027
0.0001013,4.249617168391734e-08,0.0026
0.0001301,4.780690852486885e-08,0.0026
0.000167,5.276974437376777e-08,0.0023
0.0002145,5.7151377586667504e-08,0.0022
0.0002754,6.083632135563436e-08,0.0022
0.0003536,6.30066819508711e-08,0.002
0.000454,6.361039023773417e-08,0.002
0.0005829,7.563827410960107e-08,0.0019
0.0007485,7.578435804555354e-08,0.0018
0.0009611,6.902119618503759e-08,0.0023
0.001234,6.601363934066863e-08,0.0017
0.001585,9.104539387166496e-08,0.0012
0.002035,1.5391454019276414e-07,0.0011
0.002249,2.194132614882304e-07,0.0016
0.002485,4.344815039481348e-07,0.001
0.002613,7.539910295974423e-08,0.0047
0.002747,1.5560077101096615e-07,0.0031
0.003035,1.9938713898415086e-07,0.0019
0.003355,2.1520376654424598e-07,0.0018
0.003707,2.1931389162779433e-07,0.0018
0.004307,2.2780162821328196e-07,0.0015
0.005531,2.538058413123665e-07,0.001
0.007102,3.355303267451674e-07,0.0008
0.009119,1.0241107129042203e-06,0.0004
0.01059,5.910297137985109e-07,0.0008
0.01171,7.795617953384821e-07,0.0009
0.01503,3.347873289539526e-06,0.0002
0.0193,1.2898904614543942e-06,0.0004
0.02187,2.6037603103718997e-06,0.0004
0.02358,8.762183634871881e-06,0.0002
0.02418,3.208614644896566e-05,0.0002
0.02479,9.697645614226124e-07,0.0018
0.02606,2.331708209422859e-06,0.0007
0.027,3.333061071107544e-06,0.0007
0.0285,7.492413896674695e-06,0.0003
0.03183,4.035142106781119e-06,0.0004
0.03431,9.843495549293842e-06,0.0003
0.04087,1.7401976067808675e-05,0.0001
0.04631,1.1618767155180604e-05,0.0002
0.05248,1.140043050251318e-05,0.0002
0.05656,3.786275756535704e-06,0.0005
0.06738,3.9376229558939736e-06,0.0003
0.07202,4.152945779221644e-06,0.0005
0.0795,4.368001033222812e-06,0.0004
0.0825,4.575544853388867e-06,0.0007
0.08652,4.724037795671448e-06,0.0006
0.09804,5.056089716034676e-06,0.0003
0.1111,5.581793849045792e-06,0.0003
0.1168,5.977829505015522e-06,0.0005
0.1228,6.225602675424323e-06,0.0005
0.1291,6.472719843887786e-06,0.0005
0.1357,6.736059449233118e-06,0.0005
0.1426,7.007912020688776e-06,0.0005
0.15,7.30193630943443e-06,0.0005
0.1576,7.600928413133954e-06,0.0004
0.1657,7.904407505058495e-06,0.0004
0.1742,8.226263836865057e-06,0.0004
0.1832,8.571042124200864e-06,0.0004
0.1925,8.93690512086774e-06,0.0004
0.2024,9.335872771384179e-06,0.0004
0.2128,9.705545063010693e-06,0.0004
0.2237,1.0089962158943038e-05,0.0004
0.2352,1.0495478805568924e-05,0.0004
0.2472,1.093089829508447e-05,0.0004
0.2732,1.1621355987645996e-05,0.0003
0.2872,1.2325274252532293e-05,0.0004
0.2945,1.2707724763552137e-05,0.0005
0.2972,1.289929919096617e-05,0.0008
0.2985,1.29520554233338e-05,0.0012
0.302,1.301800629912836e-05,0.0007
0.3337,1.3571156646034646e-05,0.0002
0.3688,1.4610131308445261e-05,0.0002
0.3877,1.5416622806847025e-05,0.0003
0.4076,1.600237128241743e-05,0.0003
0.4505,1.683421712285036e-05,0.0002
0.4979,1.7970300441314404e-05,0.0002
0.5234,1.878096682009103e-05,0.0003
0.5502,1.9274105441379185e-05,0.0003
0.5784,1.9711357667298578e-05,0.0003
0.6081,2.0063637721945863e-05,0.0003
0.6393,2.0275815507830473e-05,0.0003
0.6721,2.0316264815473484e-05,0.0003
0.7065,2.0099541845116324e-05,0.0003
0.7427,1.9512640744384033e-05,0.0003
0.7808,1.8466087247908814e-05,0.0003
0.8209,1.6813477036638903e-05,0.0003
0.8629,1.4446291963025744e-05,0.0003
0.9072,1.1411604968282317e-05,0.0004
0.9617,8.072267356748504e-06,0.0004
1.003,6.024580877376596e-06,0.0005
1.108,4.857962601254809e-06,0.0004
1.165,4.046467228627134e-06,0.0006
1.225,3.6411566084711952e-06,0.0006
1.287,3.2549718383139357e-06,0.0007
1.353,2.7413686672625663e-06,0.0007
1.423,2.206293566349638e-06,0.0008
1.496,1.8497444044374487e-06,0.0009
1.572,1.5414373412117843e-06,0.0009
1.653,1.2573023714465901e-06,0.0011
1.738,1.0069738656461047e-06,0.0012
1.827,7.753725616406686e-07,0.0013
1.921,6.436617438628885e-07,0.0015
2.019,5.336694446888133e-07,0.0016
2.122,4.5720073088264835e-07,0.0018
2.231,3.950360199905088e-07,0.0021
2.307,3.522890185882073e-07,0.0025
2.346,3.2943780888751943e-07,0.0036
2.365,3.1786060417366773e-07,0.0052
2.385,3.09991480582572e-07,0.0051
2.466,2.9715871238241307e-07,0.0026
2.592,2.684359382051357e-07,0.0023
2.725,2.3847366164724486e-07,0.0024
2.865,2.1381071190070338e-07,0.0026
3.012,1.9556335173333205e-07,0.0027
3.166,1.7863596211471974e-07,0.0028
3.329,1.6360098936058372e-07,0.0029
3.679,1.4276423188567254e-07,0.0022
4.066,1.2231008021191874e-07,0.0023
4.493,1.0661128042532139e-07,0.0025
4.724,9.743520221981176e-08,0.0035
4.966,9.384454902180536e-08,0.0036
5.22,9.215737390479797e-08,0.0036
5.488,9.25131786966388e-08,0.0035
5.77,9.450091872980961e-08,0.0035
6.065,9.761070386181879e-08,0.0033
6.376,1.0242489147413107e-07,0.0031
6.592,1.0583130496588317e-07,0.0038
6.703,1.0896676148872008e-07,0.0053
7.047,1.1157435085622091e-07,0.003
7.408,1.1521241939767556e-07,0.0029
7.788,1.1876216761485093e-07,0.0029
8.187,1.209416255398162e-07,0.0028
8.607,1.238946873199155e-07,0.0028
9.048,1.2915388283439557e-07,0.0027
9.512,1.3362155173287587e-07,0.0026
10.0,1.538728031879801e-07,0.0025
10.51,2.990505512204016e-07,0.0017
11.05,3.2270964927017477e-07,0.0017
11.62,3.4983571270929197e-07,0.0016
12.21,3.777736840369677e-07,0.0015
12.52,3.9578969794075263e-07,0.0021
12.84,4.0615054198683634e-07,0.002
13.5,4.243722705780511e-07,0.0014
13.84,4.3576105151688643e-07,0.0019
14.19,1.3994611562467388e-07,0.0032
14.55,0.0,0.0
14.92,0.0,0.0
15.68,0.0,0.0
16.49,0.0,0.0
16.9,0.0,0.0
17.33,0.0,0.0
19.64,0.0,0.0
