Energy,Value,Error
1e-07,4.92968e-13,0.1943
4.14e-07,3.76037e-11,0.0275
5.316e-07,3.40278e-11,0.0327
6.826e-07,5.45311e-11,0.0277
8.764e-07,8.16162e-11,0.0196
1.125e-06,1.25636e-10,0.0159
1.445e-06,1.85321e-10,0.0135
1.855e-06,2.70101e-10,0.0118
2.382e-06,3.82286e-10,0.01
3.059e-06,5.11891e-10,0.0087
3.928e-06,6.91933e-10,0.0078
5.043e-06,9.23017e-10,0.0081
6.476e-06,1.21926e-09,0.0066
8.315e-06,1.57172e-09,0.0061
1.068e-05,2.01961e-09,0.0053
1.371e-05,2.5216e-09,0.0048
1.76e-05,3.12153e-09,0.0044
2.26e-05,3.85511e-09,0.0042
2.902e-05,4.69193e-09,0.0038
3.727e-05,5.65072e-09,0.0034
4.785e-05,6.71069e-09,0.0032
6.144e-05,7.9821e-09,0.0032
7.889e-05,9.22495e-09,0.0027
0.0001013,1.06254e-08,0.0026
0.0001301,1.19621e-08,0.0026
0.000167,1.31761e-08,0.0023
0.0002145,1.43059e-08,0.0022
0.0002754,1.52039e-08,0.0022
0.0003536,1.5748e-08,0.002
0.000454,1.58982e-08,0.002
0.0005829,1.89034e-08,0.0019
0.0007485,1.89503e-08,0.0018
0.0009611,1.72558e-08,0.0023
0.001234,1.64993e-08,0.0017
0.001585,2.27908e-08,0.0012
0.002035,3.8465e-08,0.0011
0.002249,2.19391e-08,0.0016
0.002485,4.33556e-08,0.001
0.002613,3.78702e-09,0.0047
0.002747,7.78166e-09,0.0031
0.003035,1.98793e-08,0.0019
0.003355,2.15721e-08,0.0018
0.003707,2.18812e-08,0.0018
0.004307,3.41745e-08,0.0015
0.005531,6.34837e-08,0.001
0.007102,8.38852e-08,0.0008
0.009119,2.56011e-07,0.0004
0.01059,8.83885e-08,0.0008
0.01171,7.83717e-08,0.0009
0.01503,8.35646e-07,0.0002
0.0193,3.22546e-07,0.0004
0.02187,3.25498e-07,0.0004
0.02358,6.59644e-07,0.0002
0.02418,8.06227e-07,0.0002
0.02479,2.41612e-08,0.0018
0.02606,1.16495e-07,0.0007
0.027,1.18108e-07,0.0007
0.0285,4.05094e-07,0.0003
0.03183,4.45904e-07,0.0004
0.03431,7.38534e-07,0.0003
0.04087,3.04464e-06,0.0001
0.04631,1.4519e-06,0.0002
0.05248,1.4259e-06,0.0002
0.05656,2.83478e-07,0.0005
0.06738,6.89266e-07,0.0003
0.07202,2.76568e-07,0.0005
0.0795,4.31616e-07,0.0004
0.0825,1.69484e-07,0.0007
0.08652,2.24757e-07,0.0006
0.09804,6.32011e-07,0.0003
0.1111,6.98032e-07,0.0003
0.1168,2.99085e-07,0.0005
0.1228,3.11865e-07,0.0005
0.1291,3.23832e-07,0.0005
0.1357,3.35855e-07,0.0005
0.1426,3.47571e-07,0.0005
0.15,3.69418e-07,0.0005
0.1576,3.75675e-07,0.0004
0.1657,3.96159e-07,0.0004
0.1742,4.1152e-07,0.0004
0.1832,4.31761e-07,0.0004
0.1925,4.42535e-07,0.0004
0.2024,4.68192e-07,0.0004
0.2128,4.86314e-07,0.0004
0.2237,5.04025e-07,0.0004
0.2352,5.26142e-07,0.0004
0.2472,5.43938e-07,0.0004
0.2732,1.16221e-06,0.0003
0.2872,6.15952e-07,0.0004
0.2945,3.18966e-07,0.0005
0.2972,1.17723e-07,0.0008
0.2985,5.65308e-08,0.0012
0.302,1.51752e-07,0.0007
0.3337,1.35461e-06,0.0002
0.3688,1.46119e-06,0.0002
0.3877,7.70482e-07,0.0003
0.4076,8.0099e-07,0.0003
0.4505,1.68463e-06,0.0002
0.4979,1.79777e-06,0.0002
0.5234,9.38048e-07,0.0003
0.5502,9.62469e-07,0.0003
0.5784,9.85249e-07,0.0003
0.6081,1.00466e-06,0.0003
0.6393,1.01449e-06,0.0003
0.6721,1.01649e-06,0.0003
0.7065,1.00329e-06,0.0003
0.7427,9.75027e-07,0.0003
0.7808,9.238e-07,0.0003
0.8209,8.42057e-07,0.0003
0.8629,7.20834e-07,0.0003
0.9072,5.71312e-07,0.0004
0.9617,4.70933e-07,0.0004
1.003,2.53323e-07,0.0005
1.108,4.83664e-07,0.0004
1.165,2.02989e-07,0.0006
1.225,1.82858e-07,0.0006
1.287,1.60708e-07,0.0007
1.353,1.37097e-07,0.0007
1.423,1.11292e-07,0.0008
1.496,9.25382e-08,0.0009
1.572,7.63841e-08,0.0009
1.653,6.31708e-08,0.0011
1.738,5.04929e-08,0.0012
1.827,3.87223e-08,0.0013
1.921,3.22929e-08,0.0015
2.019,2.65535e-08,0.0016
2.122,2.27488e-08,0.0018
2.231,1.97877e-08,0.0021
2.307,1.1801e-08,0.0025
2.346,5.52262e-09,0.0036
2.365,2.56395e-09,0.0052
2.385,2.61047e-09,0.0051
2.466,9.92459e-09,0.0026
2.592,1.33768e-08,0.0023
2.725,1.19329e-08,0.0024
2.865,1.07119e-08,0.0026
3.012,9.7852e-09,0.0027
3.166,8.90762e-09,0.0028
3.329,8.21326e-09,0.0029
3.679,1.4272e-08,0.0022
4.066,1.22333e-08,0.0023
4.493,1.06463e-08,0.0025
4.724,4.88494e-09,0.0035
4.966,4.68836e-09,0.0036
5.22,4.59706e-09,0.0036
5.488,4.63181e-09,0.0035
5.77,4.73527e-09,0.0035
6.065,4.86711e-09,0.0033
6.376,5.1219e-09,0.0031
6.592,3.52586e-09,0.0038
6.703,1.81957e-09,0.0053
7.047,5.58394e-09,0.003
7.408,5.75584e-09,0.0029
7.788,5.94091e-09,0.0029
8.187,6.04266e-09,0.0028
8.607,6.19824e-09,0.0028
9.048,6.45355e-09,0.0027
9.512,6.68247e-09,0.0026
10.0,7.6984e-09,0.0025
10.51,1.48754e-08,0.0017
11.05,1.61688e-08,0.0017
11.62,1.75958e-08,0.0016
12.21,1.87102e-08,0.0015
12.52,9.92327e-09,0.0021
12.84,1.02504e-08,0.002
13.5,2.12714e-08,0.0014
13.84,1.08388e-08,0.0019
14.19,3.49509e-09,0.0032
14.55,0.0,0.0
14.92,0.0,0.0
15.68,0.0,0.0
16.49,0.0,0.0
16.9,0.0,0.0
17.33,0.0,0.0
19.64,0.0,0.0
