Energy,Value,Error
1e-07,1.1527985110053568e-12,0.0555
4.14e-07,7.38455064751838e-11,0.0203
5.316e-07,2.315549175399429e-10,0.0298
6.826e-07,3.1711713588696653e-10,0.026
8.764e-07,4.3651490975428727e-10,0.0217
1.125e-06,5.828427926972735e-10,0.0213
1.445e-06,7.729511876795164e-10,0.0171
1.855e-06,1.0338168865608722e-09,0.0148
2.382e-06,1.3554575980945897e-09,0.0135
3.059e-06,1.6988010670199125e-09,0.0121
3.928e-06,2.2350536025333498e-09,0.0114
5.043e-06,2.8831625650339144e-09,0.0095
6.476e-06,3.760023523891507e-09,0.0081
8.315e-06,4.805525851518421e-09,0.0073
1.068e-05,6.295350431114574e-09,0.0064
1.371e-05,8.030665217584919e-09,0.0058
1.76e-05,1.0234556255047594e-08,0.0051
2.26e-05,1.3201626644574682e-08,0.0048
2.902e-05,1.664212739046759e-08,0.0041
3.727e-05,2.129343004086147e-08,0.0036
4.785e-05,2.6999059881742966e-08,0.0032
6.144e-05,3.432813711572504e-08,0.0029
7.889e-05,4.35023505036044e-08,0.0026
0.0001013,5.521254733744711e-08,0.0023
0.0001301,6.893736946004634e-08,0.002
0.000167,8.694846762724729e-08,0.0018
0.0002145,1.0926232478439768e-07,0.0016
0.0002754,1.367417753828411e-07,0.0015
0.0003536,1.7038850429122034e-07,0.0013
0.000454,2.1178736574843645e-07,0.0012
0.0005829,2.6246401890187155e-07,0.001
0.0007485,3.247354323456216e-07,0.001
0.0009611,3.9929320776821697e-07,0.0009
0.001234,4.885016513002938e-07,0.0008
0.001585,5.956093247843817e-07,0.0007
0.002035,7.218397866271644e-07,0.0006
0.002249,7.661927372820928e-07,0.001
0.002485,8.962240776355907e-07,0.0009
0.002613,9.494960682592948e-07,0.0012
0.002747,9.860664924098945e-07,0.0012
0.003035,1.0408214668858211e-06,0.0008
0.003355,1.1152894474041502e-06,0.0008
0.003707,1.1945837601986486e-06,0.0008
0.004307,1.301231270154254e-06,0.0006
0.005531,1.4761699583950697e-06,0.0004
0.007102,1.744273554186985e-06,0.0004
0.009119,2.0193435446374925e-06,0.0004
0.01059,2.2487861987557436e-06,0.0005
0.01171,2.3938503468465588e-06,0.0005
0.01503,2.5990782717511246e-06,0.0003
0.0193,2.8829439325320194e-06,0.0003
0.02187,3.1398662533909486e-06,0.0004
0.02358,3.2692082206161624e-06,0.0005
0.02418,3.3385906264596706e-06,0.0009
0.02479,3.3646349356756715e-06,0.0009
0.02606,3.4238151241465765e-06,0.0006
0.027,3.4839276041632296e-06,0.0007
0.0285,3.5511534620987674e-06,0.0006
0.03183,3.684633568571206e-06,0.0004
0.03431,3.894725931981807e-06,0.0005
0.04087,4.143074515303114e-06,0.0003
0.04631,5.218898288764304e-06,0.0003
0.05248,1.0135101845996077e-05,0.0002
0.05656,1.4570212272317794e-05,0.0002
0.06738,1.7242589198693952e-06,0.0005
0.07202,2.799973922031265e-06,0.0006
0.0795,3.0281593017010406e-06,0.0005
0.0825,3.053539872390636e-06,0.0007
0.08652,3.040672262872353e-06,0.0006
0.09804,2.8837209787336602e-06,0.0004
0.1111,2.5169057830799463e-06,0.0004
0.1168,3.870513939100125e-06,0.0005
0.1228,5.783752869842286e-06,0.0004
0.1291,9.591211152107877e-06,0.0003
0.1357,1.9468696988502006e-05,0.0002
0.1426,4.670550132296571e-05,0.0001
0.15,8.184826664353541e-05,0.0001
0.1576,6.968413010055779e-05,0.0001
0.1657,1.718321090209709e-05,0.0002
0.1742,2.922030803736756e-06,0.0007
0.1832,7.397529103867545e-07,0.0015
0.1925,5.062553237890449e-07,0.002
0.2024,6.454584171890961e-07,0.0017
0.2128,9.075351409415098e-07,0.0014
0.2237,1.2294249294072004e-06,0.0012
0.2352,1.589683772985459e-06,0.0011
0.2472,1.9645284250062287e-06,0.0009
0.2732,2.5136490733434045e-06,0.0006
0.2872,3.0525239985413616e-06,0.0007
0.2945,3.321651349787739e-06,0.001
0.2972,3.439440568324911e-06,0.0016
0.2985,3.483648069737307e-06,0.0023
0.302,3.4832294346809118e-06,0.0014
0.3337,3.897225510499269e-06,0.0004
0.3688,4.535670915075765e-06,0.0004
0.3877,4.8550990691117976e-06,0.0005
0.4076,4.690851037302648e-06,0.0006
0.4505,4.934997870742028e-06,0.0004
0.4979,5.054038918623549e-06,0.0004
0.5234,4.098205699855522e-06,0.0006
0.5502,4.484973467983617e-06,0.0005
0.5784,3.1982948176220962e-06,0.0007
0.6081,6.0626471403167265e-06,0.0005
0.6393,6.538070608148996e-06,0.0004
0.6721,5.926891362345067e-06,0.0005
0.7065,6.0342499187673625e-06,0.0004
0.7427,4.859113374234934e-06,0.0005
0.7808,4.208740712326478e-06,0.0005
0.8209,3.1201664366312234e-06,0.0007
0.8629,3.125947557297334e-06,0.0007
0.9072,4.771041286571922e-06,0.0005
0.9617,2.9753708326218776e-06,0.0006
1.003,3.3893217107776458e-06,0.0007
1.108,5.81432025251907e-06,0.0003
1.165,7.2919297418229135e-06,0.0004
1.225,5.04235813219398e-06,0.0005
1.287,5.506279425465459e-06,0.0005
1.353,4.121501031815617e-06,0.0005
1.423,4.031225764983107e-06,0.0005
1.496,3.2392145161575278e-06,0.0006
1.572,2.9239323267912806e-06,0.0006
1.653,1.9749090115719722e-06,0.0008
1.738,3.463081181105582e-06,0.0006
1.827,4.361211599655434e-06,0.0005
1.921,1.998062355867432e-06,0.0008
2.019,2.247447065446233e-06,0.0007
2.122,3.0823185087806056e-06,0.0006
2.231,2.589313908579016e-06,0.0006
2.307,2.7256799290057e-06,0.0008
2.346,2.6468507530320576e-06,0.0011
2.365,2.7731894978225104e-06,0.0015
2.385,2.1536016481328466e-06,0.0017
2.466,3.0142270436902203e-06,0.0007
2.592,1.920558721208414e-06,0.0008
2.725,2.143363196316793e-06,0.0007
2.865,2.0102027283891502e-06,0.0007
3.012,2.2758432239792193e-06,0.0006
3.166,1.7390274945204257e-06,0.0008
3.329,2.312351983487931e-06,0.0006
3.679,2.9331087495457465e-06,0.0004
4.066,2.1050955243915607e-06,0.0005
4.493,1.624199019124445e-06,0.0005
4.724,1.182498908908056e-06,0.0008
4.966,1.00464605437691e-06,0.0009
5.22,9.499162221190302e-07,0.0009
5.488,1.4075223182294887e-06,0.0007
5.77,8.785849162638577e-07,0.0009
6.065,9.052942494546603e-07,0.0009
6.376,9.013146480947106e-07,0.0008
6.592,9.950728823145187e-07,0.0009
6.703,9.508518764815043e-07,0.0013
7.047,7.674635471498038e-07,0.0009
7.408,7.537115353668439e-07,0.0009
7.788,6.725546864650362e-07,0.0009
8.187,7.579581752933223e-07,0.0008
8.607,9.218603142143439e-07,0.0008
9.048,9.60356296236047e-07,0.0007
9.512,9.865024015614172e-07,0.0007
10.0,1.151523584472783e-06,0.0007
10.51,1.6567176180339075e-06,0.0006
11.05,1.806190466846874e-06,0.0005
11.62,1.8791954223003906e-06,0.0005
12.21,1.784748563965138e-06,0.0005
12.52,1.6910605001346537e-06,0.0008
12.84,1.7324438063346837e-06,0.0007
13.5,1.6440121192874638e-06,0.0005
13.84,1.5169379808644818e-06,0.0008
14.19,4.2702286330322237e-07,0.0016
14.55,0.0,0.0
14.92,0.0,0.0
15.68,0.0,0.0
16.49,0.0,0.0
16.9,0.0,0.0
17.33,0.0,0.0
19.64,0.0,0.0
