Energy,Value,Error
1e-07,2.73741e-13,0.3022
4.14e-07,2.53955e-11,0.0321
5.316e-07,2.58259e-11,0.0359
6.826e-07,4.40896e-11,0.0278
8.764e-07,7.22453e-11,0.0204
1.125e-06,1.12112e-10,0.0167
1.445e-06,1.74028e-10,0.0146
1.855e-06,2.64766e-10,0.0121
2.382e-06,3.8322e-10,0.0095
3.059e-06,5.5349e-10,0.008
3.928e-06,7.87974e-10,0.0068
5.043e-06,1.09594e-09,0.0064
6.476e-06,1.50752e-09,0.0054
8.315e-06,2.05642e-09,0.0048
1.068e-05,2.78826e-09,0.0043
1.371e-05,3.68278e-09,0.004
1.76e-05,4.86887e-09,0.0035
2.26e-05,6.31353e-09,0.0031
2.902e-05,8.20817e-09,0.0028
3.727e-05,1.05842e-08,0.0026
4.785e-05,1.34814e-08,0.0023
6.144e-05,1.72056e-08,0.002
7.889e-05,2.17469e-08,0.002
0.0001013,2.74331e-08,0.0017
0.0001301,3.43589e-08,0.0015
0.000167,4.27213e-08,0.0013
0.0002145,5.30919e-08,0.0013
0.0002754,6.55082e-08,0.0011
0.0003536,8.05698e-08,0.001
0.000454,9.86162e-08,0.0009
0.0005829,1.20106e-07,0.0008
0.0007485,1.45671e-07,0.0008
0.0009611,1.76011e-07,0.0007
0.001234,2.11261e-07,0.0006
0.001585,2.52829e-07,0.0006
0.002035,2.99965e-07,0.0005
0.002249,1.351e-07,0.0008
0.002485,1.44343e-07,0.0008
0.002613,7.63554e-08,0.001
0.002747,7.86697e-08,0.001
0.003035,1.64668e-07,0.0007
0.003355,1.86471e-07,0.0007
0.003707,2.02075e-07,0.0007
0.004307,3.28542e-07,0.0005
0.005531,6.18803e-07,0.0004
0.007102,7.15822e-07,0.0003
0.009119,8.22831e-07,0.0003
0.01059,5.45948e-07,0.0004
0.01171,3.99183e-07,0.0005
0.01503,1.10264e-06,0.0003
0.0193,1.21125e-06,0.0003
0.02187,7.31879e-07,0.0004
0.02358,4.78343e-07,0.0004
0.02418,1.67458e-07,0.0007
0.02479,1.70474e-07,0.0007
0.02606,3.55444e-07,0.0005
0.027,2.65367e-07,0.0006
0.0285,4.29562e-07,0.0004
0.03183,9.79059e-07,0.0003
0.03431,8.57269e-07,0.0003
0.04087,4.67898e-06,0.0001
0.04631,2.89508e-07,0.0006
0.05248,6.4485e-07,0.0004
0.05656,4.54946e-07,0.0005
0.06738,1.1547e-06,0.0003
0.07202,4.61718e-07,0.0004
0.0795,7.08121e-07,0.0004
0.0825,2.66688e-07,0.0006
0.08652,3.59028e-07,0.0005
0.09804,9.75299e-07,0.0003
0.1111,1.09109e-06,0.0003
0.1168,3.13166e-07,0.0005
0.1228,4.7467e-07,0.0004
0.1291,3.99013e-07,0.0005
0.1357,4.66315e-07,0.0004
0.1426,4.96956e-07,0.0004
0.15,5.48291e-07,0.0004
0.1576,5.63152e-07,0.0004
0.1657,6.11435e-07,0.0004
0.1742,5.84106e-07,0.0004
0.1832,6.29351e-07,0.0004
0.1925,6.90845e-07,0.0004
0.2024,7.49398e-07,0.0003
0.2128,6.98572e-07,0.0004
0.2237,9.08999e-07,0.0003
0.2352,7.87832e-07,0.0003
0.2472,6.55812e-07,0.0004
0.2732,1.23093e-06,0.0003
0.2872,6.88911e-07,0.0004
0.2945,3.62132e-07,0.0005
0.2972,1.3343e-07,0.0008
0.2985,4.87452e-08,0.0014
0.302,1.68994e-07,0.0007
0.3337,1.53679e-06,0.0002
0.3688,1.22648e-06,0.0003
0.3877,6.59353e-07,0.0004
0.4076,6.59414e-07,0.0004
0.4505,4.44731e-06,0.0001
0.4979,3.88185e-06,0.0001
0.5234,9.88441e-07,0.0003
0.5502,9.27607e-07,0.0003
0.5784,8.26023e-07,0.0003
0.6081,7.17578e-07,0.0003
0.6393,5.70278e-07,0.0004
0.6721,5.84652e-07,0.0004
0.7065,5.76089e-07,0.0004
0.7427,5.04515e-07,0.0004
0.7808,5.30191e-07,0.0004
0.8209,5.14364e-07,0.0004
0.8629,4.48074e-07,0.0004
0.9072,4.42855e-07,0.0004
0.9617,4.50275e-07,0.0004
1.003,2.53655e-07,0.0005
1.108,5.54967e-07,0.0004
1.165,2.32854e-07,0.0006
1.225,2.09071e-07,0.0006
1.287,1.98044e-07,0.0006
1.353,1.78248e-07,0.0006
1.423,1.64859e-07,0.0007
1.496,1.51118e-07,0.0007
1.572,1.48736e-07,0.0007
1.653,1.29417e-07,0.0007
1.738,1.12272e-07,0.0008
1.827,1.11803e-07,0.0008
1.921,8.35366e-08,0.0009
2.019,7.81763e-08,0.001
2.122,6.36195e-08,0.0011
2.231,5.30185e-08,0.0012
2.307,3.02494e-08,0.0016
2.346,1.3972e-08,0.0023
2.365,7.11338e-09,0.0032
2.385,6.81767e-09,0.0032
2.466,2.42944e-08,0.0018
2.592,3.49905e-08,0.0014
2.725,2.90147e-08,0.0016
2.865,2.25314e-08,0.0018
3.012,1.99072e-08,0.0019
3.166,1.67046e-08,0.0022
3.329,1.48283e-08,0.0022
3.679,2.44527e-08,0.0017
4.066,1.83121e-08,0.002
4.493,1.41433e-08,0.0022
4.724,6.1035e-09,0.0034
4.966,5.52932e-09,0.0033
5.22,5.41009e-09,0.0034
5.488,5.36172e-09,0.0032
5.77,5.51994e-09,0.0032
6.065,5.71934e-09,0.0031
6.376,6.11215e-09,0.0029
6.592,4.24461e-09,0.0034
6.703,2.17208e-09,0.0048
7.047,6.72316e-09,0.0027
7.408,7.00852e-09,0.0027
7.788,7.28582e-09,0.0027
8.187,7.29528e-09,0.0026
8.607,7.27998e-09,0.0026
9.048,7.27655e-09,0.0026
9.512,7.33731e-09,0.0026
10.0,8.23731e-09,0.0024
10.51,1.56719e-08,0.0017
11.05,1.70172e-08,0.0016
11.62,1.80319e-08,0.0016
12.21,1.90693e-08,0.0015
12.52,1.01867e-08,0.002
12.84,1.06661e-08,0.002
13.5,2.22315e-08,0.0014
13.84,1.12927e-08,0.0019
14.19,3.6528e-09,0.0031
14.55,0.0,0.0
14.92,0.0,0.0
15.68,0.0,0.0
16.49,0.0,0.0
16.9,0.0,0.0
17.33,0.0,0.0
19.64,0.0,0.0
