Energy,Value,Error
1e-07,0.0,0.0
4.14e-07,9.6971498880649e-13,0.1294
5.316e-07,1.055101000039244e-11,0.1223
6.826e-07,2.26491555670218e-11,0.0829
8.764e-07,6.358558248997995e-11,0.0514
1.125e-06,1.3091487277105303e-10,0.0371
1.445e-06,1.6720097870736793e-10,0.0328
1.855e-06,2.2178807703522534e-10,0.0283
2.382e-06,3.078001299464976e-10,0.027
3.059e-06,3.897435044214489e-10,0.0214
3.928e-06,5.169324826618715e-10,0.0211
5.043e-06,6.773181664415239e-10,0.0183
6.476e-06,8.976741341603126e-10,0.0155
8.315e-06,1.1781695704151039e-09,0.0137
1.068e-05,1.5110558892706058e-09,0.0121
1.371e-05,1.994949723121525e-09,0.0111
1.76e-05,2.604500631132795e-09,0.0101
2.26e-05,3.3560193152203528e-09,0.0086
2.902e-05,4.312390380179297e-09,0.0075
3.727e-05,5.607156536364875e-09,0.0068
4.785e-05,7.175375169969589e-09,0.0059
6.144e-05,9.266171723951956e-09,0.0051
7.889e-05,1.202235795445533e-08,0.0046
0.0001013,1.5353358814291455e-08,0.004
0.0001301,1.9593914499304494e-08,0.0036
0.000167,2.5115980928473516e-08,0.0032
0.0002145,3.190883668166375e-08,0.0028
0.0002754,4.04593808006736e-08,0.0025
0.0003536,5.106189855206962e-08,0.0022
0.000454,6.45950625300381e-08,0.002
0.0005829,8.096361129827973e-08,0.0018
0.0007485,1.012898898177646e-07,0.0016
0.0009611,1.2657832519347736e-07,0.0014
0.001234,1.5746641377530123e-07,0.0013
0.001585,1.9534683538028631e-07,0.0011
0.002035,2.414643638000856e-07,0.001
0.002249,2.79648372892867e-07,0.0015
0.002485,3.0399354707731157e-07,0.0014
0.002613,3.25215897298046e-07,0.0019
0.002747,3.3825550366538843e-07,0.0019
0.003035,3.59993718648697e-07,0.0014
0.003355,3.9150004564409787e-07,0.0013
0.003707,4.2576033658576423e-07,0.0012
0.004307,4.736663400746744e-07,0.0009
0.005531,5.613587737405144e-07,0.0006
0.007102,6.946703165375234e-07,0.0006
0.009119,8.586959374090172e-07,0.0005
0.01059,1.0145703054688592e-06,0.0006
0.01171,1.1267641443347183e-06,0.0007
0.01503,1.366470881030439e-06,0.0004
0.0193,1.5763772660579853e-06,0.0003
0.02187,1.919283113960271e-06,0.0004
0.02358,2.1949559313465056e-06,0.0005
0.02418,2.0234648392797384e-06,0.0009
0.02479,2.138898960829199e-06,0.0009
0.02606,2.2749642051847903e-06,0.0006
0.027,2.497907855133609e-06,0.0007
0.0285,2.3013204133056664e-06,0.0006
0.03183,2.536831901530983e-06,0.0004
0.03431,2.703284629825203e-06,0.0004
0.04087,2.9458941907947756e-06,0.0003
0.04631,1.1316034211120764e-05,0.0002
0.05248,6.97592974073727e-06,0.0002
0.05656,4.812723282939053e-07,0.0016
0.06738,3.2436747946306747e-06,0.0003
0.07202,5.048725408316359e-06,0.0004
0.0795,5.5605951765333225e-06,0.0003
0.0825,5.928009218876005e-06,0.0004
0.08652,6.8986038841143795e-06,0.0003
0.09804,1.2304244176055182e-05,0.0002
0.1111,1.6575568452353276e-07,0.0021
0.1168,6.132569314861654e-07,0.0015
0.1228,1.0188796205821584e-06,0.0011
0.1291,1.529311783343085e-06,0.0008
0.1357,3.566357943233944e-06,0.0005
0.1426,9.814798832695953e-06,0.0003
0.15,6.559503537564444e-07,0.0014
0.1576,1.1160957049600505e-06,0.0012
0.1657,2.67273242039839e-06,0.0007
0.1742,6.443220350626594e-06,0.0004
0.1832,1.1227292766368508e-06,0.0012
0.1925,2.465845472049247e-06,0.0007
0.2024,3.160133271839255e-06,0.0006
0.2128,3.626113167898934e-06,0.0006
0.2237,3.138803505356194e-06,0.0006
0.2352,4.4385688703633705e-06,0.0005
0.2472,2.71597467998e-06,0.0006
0.2732,3.0500147346071446e-06,0.0004
0.2872,4.281545650537838e-06,0.0005
0.2945,5.686376754190206e-06,0.0006
0.2972,7.78985175083613e-06,0.0008
0.2985,8.755538877577035e-06,0.0011
0.302,1.0035099220254333e-05,0.0006
0.3337,8.245654084513102e-06,0.0002
0.3688,1.3529262157655197e-05,0.0002
0.3877,2.5768671665007023e-06,0.0008
0.4076,5.51101776629687e-06,0.0005
0.4505,9.098339603077623e-06,0.0002
0.4979,2.1539930588996136e-05,0.0002
0.5234,1.2469823742129226e-05,0.0003
0.5502,1.3072950400564905e-05,0.0003
0.5784,1.361750598380218e-05,0.0003
0.6081,1.4152307627215884e-05,0.0003
0.6393,1.4598391300728502e-05,0.0003
0.6721,1.4967028605364853e-05,0.0003
0.7065,1.5245893846506194e-05,0.0003
0.7427,1.5342914893122863e-05,0.0003
0.7808,1.5248834296551729e-05,0.0003
0.8209,1.491488076880211e-05,0.0003
0.8629,1.4283919131715852e-05,0.0003
0.9072,1.3427659440547335e-05,0.0003
0.9617,1.2267683872410832e-05,0.0003
1.003,1.0649745149993769e-05,0.0004
1.108,9.327640942694315e-06,0.0003
1.165,8.977344770449918e-06,0.0004
1.225,8.532040491134717e-06,0.0004
1.287,8.03059000816564e-06,0.0004
1.353,7.578100636730464e-06,0.0004
1.423,7.190536175446662e-06,0.0004
1.496,6.88298603689705e-06,0.0004
1.572,6.698535796941475e-06,0.0004
1.653,6.552160143335035e-06,0.0004
1.738,6.3638927922711084e-06,0.0004
1.827,6.152372016555243e-06,0.0004
1.921,5.89486596390245e-06,0.0005
2.019,5.602187634766914e-06,0.0005
2.122,5.40411633702728e-06,0.0005
2.231,5.221669588515973e-06,0.0005
2.307,5.06488975932121e-06,0.0006
2.346,4.961622286726929e-06,0.0009
2.365,4.906926199635825e-06,0.0013
2.385,4.862510639636152e-06,0.0012
2.466,4.7747069035079804e-06,0.0006
2.592,4.638330117875489e-06,0.0005
2.725,4.486791743617049e-06,0.0005
2.865,4.250884857287773e-06,0.0005
3.012,4.018370006699806e-06,0.0005
3.166,3.892276273455716e-06,0.0005
3.329,3.7751730139511754e-06,0.0005
3.679,3.4417963535313205e-06,0.0004
4.066,3.10844750542586e-06,0.0004
4.493,2.8550910066994385e-06,0.0004
4.724,2.6899227772222003e-06,0.0006
4.966,2.58907397945624e-06,0.0006
5.22,2.4737827616951197e-06,0.0006
5.488,2.4180445554872035e-06,0.0006
5.77,2.3668186731905953e-06,0.0006
6.065,2.318858629313686e-06,0.0006
6.376,2.2770485791376015e-06,0.0006
6.592,2.2602634322757894e-06,0.0008
6.703,2.250186351477499e-06,0.0011
7.047,2.2434198463330663e-06,0.0006
7.408,2.2445228193138716e-06,0.0006
7.788,2.2711484646107796e-06,0.0006
8.187,2.318455120639127e-06,0.0006
8.607,2.410176068202175e-06,0.0006
9.048,2.578614792702652e-06,0.0005
9.512,2.7430083255389364e-06,0.0005
10.0,3.237816853011546e-06,0.0005
10.51,6.072201399143214e-06,0.0003
11.05,6.46431209085226e-06,0.0003
11.62,7.0207513185230975e-06,0.0003
12.21,7.361016200276289e-06,0.0003
12.52,7.6110964328534895e-06,0.0004
12.84,7.715330853931047e-06,0.0004
13.5,7.808534368198993e-06,0.0003
13.84,7.475737580300307e-06,0.0004
14.19,2.8944155590631755e-06,0.0007
14.55,0.0,0.0
14.92,0.0,0.0
15.68,0.0,0.0
16.49,0.0,0.0
16.9,0.0,0.0
17.33,0.0,0.0
19.64,0.0,0.0
