Energy,Value,Error
1e-07,1.99471e-12,0.1116
4.14e-07,4.22554e-11,0.027
5.316e-07,2.95126e-11,0.0343
6.826e-07,4.52234e-11,0.0292
8.764e-07,6.88573e-11,0.0253
1.125e-06,1.03626e-10,0.0203
1.445e-06,1.46529e-10,0.0198
1.855e-06,2.07151e-10,0.0154
2.382e-06,2.88307e-10,0.0299
3.059e-06,3.96723e-10,0.0115
3.928e-06,5.50698e-10,0.0109
5.043e-06,7.65762e-10,0.0087
6.476e-06,1.08734e-09,0.0073
8.315e-06,1.54228e-09,0.0065
1.068e-05,2.2145e-09,0.0052
1.371e-05,3.10112e-09,0.0044
1.76e-05,4.4372e-09,0.0037
2.26e-05,6.3721e-09,0.0031
2.902e-05,9.09583e-09,0.0026
3.727e-05,1.30269e-08,0.0022
4.785e-05,1.87488e-08,0.0019
6.144e-05,2.7058e-08,0.0016
7.889e-05,3.90198e-08,0.0013
0.0001013,5.61051e-08,0.0011
0.0001301,8.07683e-08,0.0009
0.000167,1.15691e-07,0.0008
0.0002145,1.65668e-07,0.0006
0.0002754,2.34287e-07,0.0005
0.0003536,3.26145e-07,0.0005
0.000454,4.4383e-07,0.0004
0.0005829,5.7993e-07,0.0003
0.0007485,7.09323e-07,0.0003
0.0009611,7.75511e-07,0.0003
0.001234,7.07705e-07,0.0003
0.001585,4.83191e-07,0.0004
0.002035,2.00275e-07,0.0006
0.002249,2.33534e-08,0.002
0.002485,7.74168e-09,0.0034
0.002613,1.14979e-09,0.0095
0.002747,4.40236e-10,0.0187
0.003035,5.14404e-10,0.0157
0.003355,2.41388e-09,0.0099
0.003707,8.73041e-09,0.0051
0.004307,3.82337e-08,0.0017
0.005531,1.73817e-07,0.0008
0.007102,3.47921e-07,0.0005
0.009119,5.32774e-07,0.0004
0.01059,4.0773e-07,0.0004
0.01171,3.11871e-07,0.0005
0.01503,9.08256e-07,0.0003
0.0193,1.08948e-06,0.0003
0.02187,6.02047e-07,0.0003
0.02358,3.79065e-07,0.0004
0.02418,1.28855e-07,0.0007
0.02479,1.29106e-07,0.0007
0.02606,2.61848e-07,0.0005
0.027,1.88282e-07,0.0006
0.0285,2.90617e-07,0.0005
0.03183,6.05101e-07,0.0003
0.03431,4.16283e-07,0.0004
0.04087,9.62648e-07,0.0003
0.04631,6.94318e-07,0.0003
0.05248,4.45501e-07,0.0004
0.05656,1.33719e-07,0.0008
0.06738,8.35553e-07,0.0003
0.07202,3.3617e-07,0.0005
0.0795,4.96866e-07,0.0004
0.0825,1.86312e-07,0.0006
0.08652,2.39783e-07,0.0005
0.09804,6.3415e-07,0.0003
0.1111,6.48611e-07,0.0003
0.1168,2.76594e-07,0.0005
0.1228,2.88008e-07,0.0005
0.1291,2.98188e-07,0.0005
0.1357,3.06817e-07,0.0005
0.1426,3.15523e-07,0.0005
0.15,3.29078e-07,0.0005
0.1576,3.335e-07,0.0005
0.1657,3.50401e-07,0.0004
0.1742,3.64673e-07,0.0005
0.1832,3.61728e-07,0.0004
0.1925,3.20598e-07,0.0005
0.2024,1.72753e-07,0.0007
0.2128,2.02914e-07,0.0006
0.2237,2.54857e-07,0.0005
0.2352,2.68596e-07,0.0005
0.2472,1.51299e-07,0.0008
0.2732,7.80001e-07,0.0003
0.2872,4.82173e-07,0.0004
0.2945,3.02239e-07,0.0004
0.2972,1.81703e-07,0.0005
0.2985,7.2489e-08,0.0009
0.302,4.16318e-08,0.0014
0.3337,7.8224e-07,0.0003
0.3688,8.59695e-07,0.0003
0.3877,3.10835e-07,0.0005
0.4076,2.28771e-07,0.0006
0.4505,6.90419e-07,0.0003
0.4979,1.0979e-06,0.0002
0.5234,7.44843e-07,0.0003
0.5502,4.4379e-07,0.0004
0.5784,2.75463e-07,0.0005
0.6081,2.05636e-07,0.0006
0.6393,2.14938e-07,0.0005
0.6721,1.53061e-07,0.0007
0.7065,8.47901e-08,0.001
0.7427,8.50625e-08,0.001
0.7808,1.33157e-07,0.0008
0.8209,1.2128e-07,0.0008
0.8629,1.83854e-07,0.0006
0.9072,1.65811e-07,0.0006
0.9617,1.95965e-07,0.0006
1.003,1.61112e-07,0.0006
1.108,3.13132e-07,0.0005
1.165,1.8966e-07,0.0006
1.225,2.09168e-07,0.0006
1.287,2.38047e-07,0.0005
1.353,2.44442e-07,0.0005
1.423,2.88085e-07,0.0005
1.496,3.17556e-07,0.0004
1.572,3.45716e-07,0.0004
1.653,2.53764e-07,0.0005
1.738,2.90081e-07,0.0005
1.827,2.54159e-07,0.0005
1.921,3.56669e-07,0.0004
2.019,2.4151e-07,0.0005
2.122,1.87382e-07,0.0006
2.231,2.00885e-07,0.0005
2.307,1.43887e-07,0.0006
2.346,7.67215e-08,0.0009
2.365,3.62572e-08,0.0013
2.385,3.61346e-08,0.0013
2.466,1.20056e-07,0.0007
2.592,2.01767e-07,0.0005
2.725,2.25879e-07,0.0005
2.865,2.02878e-07,0.0005
3.012,2.05793e-07,0.0005
3.166,2.6441e-07,0.0004
3.329,2.27124e-07,0.0005
3.679,3.97523e-07,0.0004
4.066,4.09934e-07,0.0003
4.493,3.8941e-07,0.0004
4.724,2.01067e-07,0.0005
4.966,1.87569e-07,0.0005
5.22,1.93322e-07,0.0005
5.488,1.70485e-07,0.0005
5.77,1.72999e-07,0.0005
6.065,1.74882e-07,0.0005
6.376,1.60093e-07,0.0005
6.592,1.09097e-07,0.0006
6.703,5.28822e-08,0.0009
7.047,1.67356e-07,0.0005
7.408,1.70106e-07,0.0005
7.788,1.66605e-07,0.0005
8.187,1.69509e-07,0.0005
8.607,1.79616e-07,0.0005
9.048,1.83506e-07,0.0004
9.512,2.0755e-07,0.0004
10.0,2.3069e-07,0.0004
10.51,3.73784e-07,0.0003
11.05,3.90385e-07,0.0003
11.62,4.02423e-07,0.0003
12.21,4.07987e-07,0.0003
12.52,2.11155e-07,0.0004
12.84,2.13489e-07,0.0004
13.5,4.01228e-07,0.0003
13.84,1.81555e-07,0.0004
14.19,6.45434e-08,0.0007
14.55,0.0,0.0
14.92,0.0,0.0
15.68,0.0,0.0
16.49,0.0,0.0
16.9,0.0,0.0
17.33,0.0,0.0
19.64,0.0,0.0
