Energy,Value,Error
1e-07,1.4958404840193703e-14,0.6591
4.14e-07,1.969429362678295e-11,0.0481
5.316e-07,9.708295461805664e-11,0.0465
6.826e-07,1.6863605406913907e-10,0.04
8.764e-07,2.678630042599055e-10,0.0226
1.125e-06,3.7098467350599677e-10,0.0196
1.445e-06,5.375823777829355e-10,0.0155
1.855e-06,7.398567627958737e-10,0.0133
2.382e-06,9.262653506681791e-10,0.0127
3.059e-06,1.1645844561893178e-09,0.011
3.928e-06,1.3558984446390437e-09,0.0114
5.043e-06,1.5379711150570131e-09,0.0114
6.476e-06,1.6786358369093761e-09,0.0116
8.315e-06,1.7609753026714261e-09,0.0133
1.068e-05,1.795609084572673e-09,0.0115
1.371e-05,1.7339955455404156e-09,0.0118
1.76e-05,1.628496013614056e-09,0.0126
2.26e-05,1.475343005039772e-09,0.0137
2.902e-05,1.3224250557639e-09,0.0152
3.727e-05,1.1178102543181257e-09,0.0144
4.785e-05,8.84492049465426e-10,0.0174
6.144e-05,7.200288848502458e-10,0.0273
7.889e-05,5.254178956901365e-10,0.0241
0.0001013,3.6001641273089295e-10,0.0278
0.0001301,2.4839242094930234e-10,0.0319
0.000167,1.6755908714530537e-10,0.0298
0.0002145,1.2178569894881133e-10,0.0344
0.0002754,9.774729353890213e-11,0.041
0.0003536,9.515697368014562e-11,0.035
0.000454,2.0247959186145297e-10,0.0249
0.0005829,7.012887687833528e-10,0.0143
0.0007485,7.02787815786209e-09,0.0035
0.0009611,1.3612124814450037e-09,0.0092
0.001234,9.731063321401551e-09,0.0028
0.001585,7.684097336034114e-11,0.0394
0.002035,2.504859606366541e-10,0.0263
0.002249,4.720878976480542e-10,0.0315
0.002485,6.616473978072236e-10,0.0225
0.002613,8.897883376779994e-10,0.0328
0.002747,1.069027202444437e-09,0.045
0.003035,1.3094519389553865e-09,0.0234
0.003355,1.8060891385850207e-09,0.0179
0.003707,2.4781812249265937e-09,0.0126
0.004307,3.6659434213280825e-09,0.0081
0.005531,6.474710201285961e-09,0.0054
0.007102,1.1306127090171152e-08,0.0039
0.009119,1.9072962456212504e-08,0.003
0.01059,2.7971044478627167e-08,0.003
0.01171,3.428207039528518e-08,0.0034
0.01503,4.57851357243565e-08,0.0019
0.0193,6.763540830591523e-08,0.0016
0.02187,8.776526006696305e-08,0.0019
0.02358,1.0031579425454219e-07,0.0047
0.02418,1.0508159533347302e-07,0.0038
0.02479,1.0985008350475518e-07,0.004
0.02606,1.1429963788419853e-07,0.0027
0.027,1.2007181210525075e-07,0.0032
0.0285,1.2710621775153315e-07,0.003
0.03183,1.4020793995979992e-07,0.0016
0.03431,1.5672762501738764e-07,0.0019
0.04087,1.8163238217840023e-07,0.0011
0.04631,2.1601992171663082e-07,0.0012
0.05248,2.4695735841337196e-07,0.0012
0.05656,2.710636216602835e-07,0.0014
0.06738,3.0196596698900517e-07,0.0009
0.07202,3.343898580562786e-07,0.0013
0.0795,3.583216928547987e-07,0.0011
0.0825,3.7737095315266097e-07,0.0018
0.08652,3.905811589823827e-07,0.0015
0.09804,4.1746334168687863e-07,0.001
0.1111,4.529490024351466e-07,0.0009
0.1168,4.7367130968257305e-07,0.0013
0.1228,4.848190703563812e-07,0.0013
0.1291,4.96151509415033e-07,0.0013
0.1357,5.063852822623982e-07,0.0013
0.1426,5.168342928239804e-07,0.0013
0.15,5.254153300502228e-07,0.0013
0.1576,5.319385343972977e-07,0.0013
0.1657,5.364359966004815e-07,0.0013
0.1742,5.401284235810989e-07,0.0013
0.1832,5.409852343317184e-07,0.0013
0.1925,5.3824792345343e-07,0.0013
0.2024,5.329893378531865e-07,0.0013
0.2128,5.222023662987936e-07,0.0014
0.2237,5.080304204771762e-07,0.0013
0.2352,4.889932188504876e-07,0.0014
0.2472,4.6707586256829134e-07,0.0014
0.2732,4.2845956953377357e-07,0.0011
0.2872,3.8010426070765645e-07,0.0017
0.2945,3.567398729317277e-07,0.0027
0.2972,3.422588192701026e-07,0.0045
0.2985,3.381416947412989e-07,0.0062
0.302,3.3340926592114965e-07,0.0039
0.3337,2.913779758700081e-07,0.0018
0.3688,2.1506996379124837e-07,0.0018
0.3877,1.7503027823367021e-07,0.0028
0.4076,1.5834813774900937e-07,0.003
0.4505,1.4192513224310788e-07,0.0022
0.4979,1.246346796768067e-07,0.0024
0.5234,1.1439125769426031e-07,0.0036
0.5502,1.0723937010758296e-07,0.0036
0.5784,1.008252222949203e-07,0.0037
0.6081,9.29658217754654e-08,0.0038
0.6393,8.609781722201557e-08,0.0042
0.6721,7.612868124053757e-08,0.0046
0.7065,6.892711049253144e-08,0.0046
0.7427,6.394265397206297e-08,0.0047
0.7808,6.080855745115122e-08,0.005
0.8209,5.647648008842873e-08,0.005
0.8629,5.227254810178371e-08,0.0052
0.9072,4.864561349972477e-08,0.0053
0.9617,4.356044922251142e-08,0.0053
1.003,3.838068238235551e-08,0.0064
1.108,3.339206466886449e-08,0.0048
1.165,2.8403353709004362e-08,0.0072
1.225,2.479044254475267e-08,0.0072
1.287,2.2140605726241873e-08,0.0081
1.353,1.8838053933050298e-08,0.0089
1.423,1.652725843338813e-08,0.009
1.496,1.4653302969114981e-08,0.0097
1.572,1.2125968638578798e-08,0.0108
1.653,9.751224702672291e-09,0.0122
1.738,7.930346218889594e-09,0.0133
1.827,6.377360875755098e-09,0.0147
1.921,5.216301313218609e-09,0.0171
2.019,4.50612885398287e-09,0.0176
2.122,3.771773384331371e-09,0.0207
2.231,3.106354185202079e-09,0.0214
2.307,2.6788712533725922e-09,0.0258
2.346,2.5982220764609544e-09,0.0384
2.365,2.6380093255137808e-09,0.0567
2.385,2.4998152271582663e-09,0.0533
2.466,2.329625928755731e-09,0.0294
2.592,2.1501885609968066e-09,0.0285
2.725,1.922076249467848e-09,0.0337
2.865,1.5805793054649324e-09,0.0277
3.012,1.524919285036036e-09,0.0304
3.166,1.4696984289338062e-09,0.0534
3.329,1.1454495405211046e-09,0.0369
3.679,1.0924484675214533e-09,0.025
4.066,9.79007542958882e-10,0.0242
4.493,8.247200628737047e-10,0.0264
4.724,8.110099221890115e-10,0.0401
4.966,7.661374696427549e-10,0.0417
5.22,8.120869153865409e-10,0.0348
5.488,8.297865742253052e-10,0.0345
5.77,9.207616541570675e-10,0.0325
6.065,9.771679569525362e-10,0.0336
6.376,1.0073250806846995e-09,0.0318
6.592,1.1278415150042996e-09,0.0353
6.703,1.2942980627440884e-09,0.0484
7.047,1.2552708914842869e-09,0.0293
7.408,1.2798682138511835e-09,0.0297
7.788,1.354630880651104e-09,0.0264
8.187,1.4294871585472797e-09,0.0273
8.607,1.549553099439652e-09,0.0281
9.048,1.4989379240320177e-09,0.0247
9.512,1.634139426561967e-09,0.031
10.0,2.148750627912373e-09,0.0232
10.51,3.3753707092786064e-09,0.0218
11.05,3.5785907058342653e-09,0.0158
11.62,4.160340662389331e-09,0.0154
12.21,4.656137077888692e-09,0.0157
12.52,5.076444094013885e-09,0.0187
12.84,5.265684878379441e-09,0.0205
13.5,5.473523277216467e-09,0.0132
13.84,4.9843879068679695e-09,0.0181
14.19,1.2024565344816462e-09,0.0345
14.55,0.0,0.0
14.92,0.0,0.0
15.68,0.0,0.0
16.49,0.0,0.0
16.9,0.0,0.0
17.33,0.0,0.0
19.64,0.0,0.0
