Energy,Value,Error
1e-07,1.1334130529814686e-14,0.4824
4.14e-07,2.475589799104106e-12,0.0942
5.316e-07,2.294215338907631e-11,0.0971
6.826e-07,4.0518729712584945e-11,0.0624
8.764e-07,8.977383616223393e-11,0.0431
1.125e-06,1.5041064282132893e-10,0.037
1.445e-06,2.1866740762540132e-10,0.0352
1.855e-06,2.685052525117591e-10,0.027
2.382e-06,3.6696293075552383e-10,0.0248
3.059e-06,4.5294459195661883e-10,0.0221
3.928e-06,5.907039930497162e-10,0.0191
5.043e-06,7.812639053064967e-10,0.0165
6.476e-06,1.0227431596671255e-09,0.0175
8.315e-06,1.3318033336729092e-09,0.0133
1.068e-05,1.7220887558610337e-09,0.0117
1.371e-05,2.2170214319499085e-09,0.0107
1.76e-05,2.8445502039328134e-09,0.0093
2.26e-05,3.6977775907439446e-09,0.0082
2.902e-05,4.771205519909573e-09,0.0071
3.727e-05,6.196716714477242e-09,0.0063
4.785e-05,7.973110410561748e-09,0.0058
6.144e-05,1.0244210959206873e-08,0.0052
7.889e-05,1.3147427709096008e-08,0.0045
0.0001013,1.6912439662619485e-08,0.004
0.0001301,2.158047037331128e-08,0.0034
0.000167,2.7709552528492358e-08,0.0031
0.0002145,3.571930138292094e-08,0.0027
0.0002754,4.5655150522935076e-08,0.0024
0.0003536,5.841321157064535e-08,0.0022
0.000454,7.46670477450592e-08,0.0019
0.0005829,9.490055769687212e-08,0.0017
0.0007485,1.2067398198952983e-07,0.0015
0.0009611,1.526523682150356e-07,0.0013
0.001234,1.930248688780182e-07,0.0012
0.001585,2.43191727564096e-07,0.001
0.002035,3.050633003210219e-07,0.0009
0.002249,3.558901083163518e-07,0.0014
0.002485,3.881387877394385e-07,0.0013
0.002613,4.140298772830545e-07,0.0018
0.002747,4.3335768327812604e-07,0.0017
0.003035,4.611501472062746e-07,0.0012
0.003355,5.060457397507303e-07,0.0011
0.003707,5.516885185141597e-07,0.0011
0.004307,6.12689691935829e-07,0.0008
0.005531,7.252315100421571e-07,0.0006
0.007102,8.884362683206288e-07,0.0005
0.009119,1.0919751337471531e-06,0.0005
0.01059,1.274550226753711e-06,0.0006
0.01171,1.3920003874263013e-06,0.0007
0.01503,1.6345904819489419e-06,0.0004
0.0193,2.0240313940420355e-06,0.0003
0.02187,2.416224421621865e-06,0.0004
0.02358,2.5024753104827048e-06,0.0006
0.02418,2.6242381107467148e-06,0.0009
0.02479,2.677765867101877e-06,0.0009
0.02606,2.7707887106470253e-06,0.0006
0.027,2.871600250208447e-06,0.0007
0.0285,2.978458966755377e-06,0.0006
0.03183,3.1850098135533267e-06,0.0004
0.03431,3.429084051567189e-06,0.0005
0.04087,3.7998235323454415e-06,0.0003
0.04631,4.264765354049666e-06,0.0003
0.05248,4.734364766653813e-06,0.0003
0.05656,5.0269616475911e-06,0.0004
0.06738,5.589775204392238e-06,0.0002
0.07202,6.131214012487156e-06,0.0003
0.0795,6.6422628033913485e-06,0.0003
0.0825,7.588373380526202e-06,0.0004
0.08652,8.60147451385988e-06,0.0003
0.09804,6.006858038725035e-06,0.0002
0.1111,1.7024810290033198e-06,0.0004
0.1168,1.3604911160542977e-06,0.0007
0.1228,2.9285575146065582e-06,0.0005
0.1291,2.6010446960305386e-06,0.0005
0.1357,7.729956893090577e-08,0.0048
0.1426,5.896895923039623e-07,0.0013
0.15,9.990534804216982e-07,0.0009
0.1576,2.1171724231816067e-06,0.0006
0.1657,3.0200475677017534e-06,0.0005
0.1742,3.3608101855874265e-07,0.0018
0.1832,1.4263716763055372e-06,0.0007
0.1925,4.281519408815778e-06,0.0004
0.2024,1.0559886027054172e-05,0.0003
0.2128,5.476539914193074e-06,0.0004
0.2237,7.298884743961013e-07,0.0015
0.2352,5.06086657101933e-06,0.0004
0.2472,7.128943698521395e-07,0.0013
0.2732,6.161285547530876e-07,0.0011
0.2872,3.1507536841429687e-06,0.0006
0.2945,3.667796472036411e-06,0.0007
0.2972,1.6654157499674146e-06,0.0019
0.2985,3.1303527075138693e-06,0.0019
0.302,4.4716240850136725e-06,0.0009
0.3337,6.759219656585127e-06,0.0002
0.3688,1.662288764567042e-06,0.0006
0.3877,2.8918098166596574e-06,0.0006
0.4076,3.7680161276565517e-06,0.0005
0.4505,6.104998094893214e-06,0.0003
0.4979,9.714849755200525e-06,0.0002
0.5234,6.344018098769471e-06,0.0004
0.5502,1.1065194787192178e-05,0.0003
0.5784,1.5227867020815359e-05,0.0002
0.6081,4.89291066002734e-06,0.0005
0.6393,4.472495262177839e-06,0.0005
0.6721,7.285246393534774e-06,0.0004
0.7065,8.196920473904957e-06,0.0004
0.7427,1.3246474787916097e-05,0.0003
0.7808,9.023236250330192e-06,0.0003
0.8209,1.2729156907718221e-05,0.0003
0.8629,1.264706391112397e-05,0.0003
0.9072,5.657604296831134e-06,0.0004
0.9617,5.0160423790109034e-06,0.0004
1.003,5.631032860185784e-06,0.0004
1.108,3.6560170138131982e-06,0.0003
1.165,3.4070309572396575e-06,0.0005
1.225,4.128793376809748e-06,0.0005
1.287,3.175252290092293e-06,0.0005
1.353,4.053375230015697e-06,0.0005
1.423,6.088083245152753e-06,0.0004
1.496,5.515000082918199e-06,0.0004
1.572,5.986925593205997e-06,0.0004
1.653,4.5289977636034845e-06,0.0004
1.738,4.517241896061297e-06,0.0004
1.827,4.592027422011854e-06,0.0004
1.921,4.6635075163068005e-06,0.0004
2.019,4.351576044385003e-06,0.0004
2.122,4.185325722888669e-06,0.0004
2.231,4.74529540106551e-06,0.0004
2.307,3.9614827001688234e-06,0.0005
2.346,4.5208384092499966e-06,0.0007
2.365,5.303453878588018e-06,0.0009
2.385,4.851728203355751e-06,0.0009
2.466,3.842503220402275e-06,0.0006
2.592,3.6976564859677133e-06,0.0004
2.725,3.245511244137989e-06,0.0005
2.865,3.5253348262390736e-06,0.0004
3.012,2.7815595151393623e-06,0.0005
3.166,3.1173184863027937e-06,0.0004
3.329,3.453996970279107e-06,0.0004
3.679,2.5765482783038187e-06,0.0003
4.066,2.2521079756055466e-06,0.0004
4.493,1.975177177510653e-06,0.0004
4.724,1.969164690880549e-06,0.0005
4.966,1.9349108018223928e-06,0.0005
5.22,1.914713350436703e-06,0.0005
5.488,1.8887044563782024e-06,0.0005
5.77,1.8723086948354113e-06,0.0005
6.065,1.876592059026029e-06,0.0005
6.376,1.8959473531729689e-06,0.0005
6.592,1.883175662402229e-06,0.0006
6.703,1.876659429493957e-06,0.0008
7.047,1.8565080497029793e-06,0.0005
7.408,1.858290269463669e-06,0.0005
7.788,1.8749433954783913e-06,0.0005
8.187,1.921148633054887e-06,0.0005
8.607,2.005265209468159e-06,0.0005
9.048,2.1167183766498053e-06,0.0005
9.512,2.297681136843308e-06,0.0004
10.0,2.7545558331270266e-06,0.0004
10.51,5.0823556141264145e-06,0.0003
11.05,5.477968753233959e-06,0.0003
11.62,5.961092546771893e-06,0.0003
12.21,6.429514189980006e-06,0.0003
12.52,6.759431868639386e-06,0.0004
12.84,6.95108441927073e-06,0.0004
13.5,7.031387709864449e-06,0.0003
13.84,6.599173919542411e-06,0.0004
14.19,2.4386354104706926e-06,0.0007
14.55,0.0,0.0
14.92,0.0,0.0
15.68,0.0,0.0
16.49,0.0,0.0
16.9,0.0,0.0
17.33,0.0,0.0
19.64,0.0,0.0
