Energy,Value,Error
1e-07,0.0,0.0
4.14e-07,1.2336771988802536e-13,0.3947
5.316e-07,7.782850725113401e-13,0.3374
6.826e-07,3.381432464281187e-12,0.4174
8.764e-07,7.663729466272137e-12,0.1175
1.125e-06,1.622861473164594e-11,0.0831
1.445e-06,4.199718763799036e-11,0.0464
1.855e-06,1.0705338768508156e-10,0.0316
2.382e-06,2.263966910126019e-10,0.0229
3.059e-06,4.873442831720916e-10,0.0168
3.928e-06,9.69903794032796e-10,0.0118
5.043e-06,1.788628702420466e-09,0.0083
6.476e-06,3.2525303633271774e-09,0.0061
8.315e-06,5.4481536154916846e-09,0.0048
1.068e-05,8.980282633322449e-09,0.0038
1.371e-05,1.4046216762646736e-08,0.003
1.76e-05,2.131491912055137e-08,0.0025
2.26e-05,3.120583348145106e-08,0.002
2.902e-05,4.479046820839693e-08,0.0017
3.727e-05,6.235365259812112e-08,0.0015
4.785e-05,8.479868780764341e-08,0.0013
6.144e-05,1.1308173641387253e-07,0.0012
7.889e-05,1.480935166188191e-07,0.0011
0.0001013,1.9008051976247412e-07,0.001
0.0001301,2.4200796200242193e-07,0.0009
0.000167,3.0264756618314656e-07,0.0008
0.0002145,3.754978818977763e-07,0.0007
0.0002754,4.5968857374090477e-07,0.0007
0.0003536,5.624510635416218e-07,0.0006
0.000454,6.849654140945933e-07,0.0006
0.0005829,8.370690619388277e-07,0.0005
0.0007485,1.0354018972184173e-06,0.0005
0.0009611,1.3116459204553662e-06,0.0004
0.001234,1.7433541465340676e-06,0.0004
0.001585,2.520286931723024e-06,0.0003
0.002035,4.911020238382511e-06,0.0002
0.002249,8.511943614766549e-06,0.0002
0.002485,1.3100806477049264e-05,0.0002
0.002613,1.9590841277288552e-05,0.0002
0.002747,2.7579252166873782e-05,0.0002
0.003035,5.412127197428873e-05,0.0001
0.003355,0.00011391221664381896,0.0001
0.003707,2.261264819857003e-05,0.0001
0.004307,1.0909507930846205e-07,0.0024
0.005531,4.112470454739606e-07,0.001
0.007102,7.587923150313194e-08,0.0023
0.009119,1.1350379389563588e-06,0.0006
0.01059,2.356248578255971e-06,0.0005
0.01171,2.3834756458698285e-06,0.0006
0.01503,1.4490934159916231e-06,0.0005
0.0193,4.5660809034351635e-07,0.0008
0.02187,7.607018479348419e-07,0.0009
0.02358,1.0444222054838092e-06,0.0011
0.02418,1.0304195264535976e-06,0.0019
0.02479,9.187942446937009e-07,0.0021
0.02606,6.095847250345409e-07,0.0018
0.027,2.7681102109226613e-07,0.004
0.0285,1.0596124352981339e-07,0.0051
0.03183,4.672107872085107e-08,0.0063
0.03431,9.124240384572797e-08,0.0039
0.04087,3.722805682118906e-07,0.0011
0.04631,3.478435937812183e-06,0.0004
0.05248,2.6021348701507394e-06,0.0005
0.05656,1.0176723016167918e-06,0.0011
0.06738,3.1054198783057873e-07,0.0018
0.07202,7.281004339859738e-07,0.0015
0.0795,9.700195466227615e-07,0.001
0.0825,7.340703697930857e-07,0.002
0.08652,1.2345927666983761e-06,0.0014
0.09804,1.689792573514873e-06,0.0007
0.1111,2.5585274236125914e-06,0.0005
0.1168,7.517012922277305e-07,0.0017
0.1228,2.3157489245750517e-06,0.0008
0.1291,1.1513706806473903e-06,0.0012
0.1357,3.958822582148337e-07,0.0024
0.1426,5.920385274867314e-07,0.002
0.15,1.0404831305864833e-06,0.0014
0.1576,1.7613051187826202e-06,0.0011
0.1657,3.2676195989386197e-06,0.0007
0.1742,1.5562575141612034e-06,0.0012
0.1832,5.346427254930735e-06,0.0005
0.1925,1.829745672308851e-06,0.001
0.2024,1.728334473855569e-06,0.0012
0.2128,4.027415824468597e-06,0.0007
0.2237,1.1189152957461454e-05,0.0003
0.2352,3.515674809559165e-06,0.0007
0.2472,8.751322133487806e-06,0.0004
0.2732,1.0011159074273512e-05,0.0002
0.2872,8.374475897433235e-06,0.0004
0.2945,5.078372805128019e-06,0.0008
0.2972,6.777438162965866e-06,0.001
0.2985,7.640413159368413e-06,0.0013
0.302,7.659582434756e-06,0.0008
0.3337,1.1271811327580322e-05,0.0002
0.3688,8.88762407088588e-06,0.0002
0.3877,7.875607178390413e-06,0.0003
0.4076,9.055357507384369e-07,0.0014
0.4505,1.4693353742523843e-06,0.0007
0.4979,2.2452454842536685e-06,0.0006
0.5234,1.470762760978674e-06,0.001
0.5502,1.7306421232891392e-06,0.0009
0.5784,2.0588461456789393e-06,0.0008
0.6081,2.5559340213039646e-06,0.0007
0.6393,3.7631045381342947e-06,0.0005
0.6721,3.3597216725707694e-06,0.0006
0.7065,2.2426648445130988e-06,0.0007
0.7427,1.2172388694513723e-06,0.001
0.7808,6.297599395287318e-07,0.0016
0.8209,6.568173481991516e-07,0.0016
0.8629,1.1720745145883968e-06,0.001
0.9072,9.879769500066053e-07,0.0011
0.9617,1.6385794432068937e-06,0.0007
1.003,7.592803611337152e-07,0.0014
1.108,7.467817794757012e-07,0.0009
1.165,8.312232970878787e-07,0.0011
1.225,7.701490872636574e-07,0.0012
1.287,3.6630484281436207e-07,0.0019
1.353,4.2092427454340634e-07,0.0017
1.423,3.786811131590547e-07,0.0018
1.496,2.705628633440409e-07,0.0022
1.572,3.0224514832622735e-07,0.0021
1.653,2.3104852731285474e-07,0.0023
1.738,2.369373734320714e-07,0.0023
1.827,2.06010179887856e-07,0.0025
1.921,1.6285531684422653e-07,0.0027
2.019,1.317668215768555e-07,0.0031
2.122,1.1691450396280298e-07,0.0034
2.231,1.0429863668837786e-07,0.0036
2.307,1.1503470856609962e-07,0.0039
2.346,7.7771284093241e-08,0.0071
2.365,1.3105559019875948e-07,0.0074
2.385,9.238612278742026e-08,0.0089
2.466,7.240492537053434e-08,0.0054
2.592,5.265613099781052e-08,0.0051
2.725,5.8033940199272617e-08,0.0051
2.865,4.952941837812558e-08,0.0051
3.012,4.911187896163807e-08,0.0052
3.166,3.897329953614154e-08,0.006
3.329,3.865526185254605e-08,0.0057
3.679,3.458861640778865e-08,0.0044
4.066,2.7269889872561643e-08,0.0049
4.493,2.3052162126926172e-08,0.0055
4.724,1.9359944285453827e-08,0.0079
4.966,1.8053179881878007e-08,0.0082
5.22,1.728141708622199e-08,0.0082
5.488,1.6180923084513056e-08,0.008
5.77,1.5778378713711035e-08,0.0086
6.065,1.5372004733862607e-08,0.0084
6.376,1.5710869294070995e-08,0.0082
6.592,1.4709184473355742e-08,0.0101
6.703,1.5581617491070475e-08,0.0135
7.047,1.564323575096262e-08,0.008
7.408,1.569496588029883e-08,0.008
7.788,1.6034414909787275e-08,0.0075
8.187,1.7061394307294163e-08,0.0075
8.607,1.7341186527851887e-08,0.007
9.048,1.8943836962433624e-08,0.0068
9.512,2.0026426262598584e-08,0.0064
10.0,2.9023044251936314e-08,0.0053
10.51,4.5291822562751586e-08,0.0041
11.05,4.895750952354472e-08,0.0039
11.62,5.356607100857908e-08,0.0037
12.21,5.8606791160431434e-08,0.0035
12.52,6.436443078258371e-08,0.005
12.84,6.762320938623605e-08,0.0047
13.5,6.928703162694765e-08,0.0032
13.84,5.998086762179145e-08,0.0046
14.19,1.1557529734103661e-08,0.0102
14.55,0.0,0.0
14.92,0.0,0.0
15.68,0.0,0.0
16.49,0.0,0.0
16.9,0.0,0.0
17.33,0.0,0.0
19.64,0.0,0.0
