Energy,Value,Error
1e-07,2.50777e-10,0.0377
4.14e-07,2.87347e-09,0.0132
5.316e-07,1.21234e-09,0.0175
6.826e-07,1.62755e-09,0.0186
8.764e-07,1.97645e-09,0.0161
1.125e-06,2.42404e-09,0.0145
1.445e-06,2.91615e-09,0.0126
1.855e-06,3.47669e-09,0.012
2.382e-06,4.11345e-09,0.0114
3.059e-06,4.86119e-09,0.0124
3.928e-06,5.59752e-09,0.0103
5.043e-06,6.39443e-09,0.0093
6.476e-06,7.44552e-09,0.0098
8.315e-06,8.35916e-09,0.0093
1.068e-05,9.63371e-09,0.0088
1.371e-05,1.06512e-08,0.0084
1.76e-05,1.16983e-08,0.0075
2.26e-05,1.28517e-08,0.0073
2.902e-05,1.4258e-08,0.0066
3.727e-05,1.57313e-08,0.0062
4.785e-05,1.72661e-08,0.006
6.144e-05,1.87713e-08,0.0057
7.889e-05,2.04468e-08,0.0057
0.0001013,2.18965e-08,0.0055
0.0001301,2.9935e-08,0.0051
0.000167,3.44712e-08,0.0046
0.0002145,3.69261e-08,0.0047
0.0002754,3.85103e-08,0.0044
0.0003536,4.02519e-08,0.0041
0.000454,4.17271e-08,0.0039
0.0005829,4.29869e-08,0.0039
0.0007485,4.42149e-08,0.0039
0.0009611,4.57491e-08,0.0037
0.001234,5.00923e-08,0.0033
0.001585,7.68485e-08,0.0025
0.002035,6.20334e-08,0.0031
0.002249,2.7227e-08,0.0047
0.002485,3.26766e-08,0.0042
0.002613,1.68331e-08,0.0059
0.002747,1.7213e-08,0.0065
0.003035,3.55488e-08,0.004
0.003355,4.09443e-08,0.0041
0.003707,8.13048e-08,0.0024
0.004307,6.5735e-08,0.0031
0.005531,6.20033e-07,0.0008
0.007102,1.13685e-07,0.0024
0.009119,1.67818e-07,0.0022
0.01059,1.98991e-07,0.0018
0.01171,2.84311e-07,0.0012
0.01503,4.47567e-07,0.0011
0.0193,5.31597e-07,0.001
0.02187,5.75171e-07,0.001
0.02358,4.63996e-07,0.0011
0.02418,1.61872e-07,0.0019
0.02479,1.63839e-07,0.0019
0.02606,3.3916e-07,0.0013
0.027,2.48041e-07,0.0016
0.0285,3.92683e-07,0.0013
0.03183,8.47225e-07,0.0009
0.03431,6.09038e-07,0.001
0.04087,1.51887e-06,0.0006
0.04631,1.14604e-06,0.0007
0.05248,1.18627e-06,0.0007
0.05656,7.24955e-07,0.0009
0.06738,1.72992e-06,0.0006
0.07202,6.75321e-07,0.0009
0.0795,1.01202e-06,0.0008
0.0825,3.82959e-07,0.0012
0.08652,4.92684e-07,0.0011
0.09804,1.31652e-06,0.0007
0.1111,1.36085e-06,0.0007
0.1168,5.57362e-07,0.001
0.1228,5.64984e-07,0.0011
0.1291,5.71827e-07,0.0011
0.1357,5.72856e-07,0.001
0.1426,5.69064e-07,0.0011
0.15,5.80617e-07,0.0011
0.1576,5.66796e-07,0.0011
0.1657,5.72497e-07,0.0011
0.1742,5.67161e-07,0.0011
0.1832,5.63286e-07,0.0011
0.1925,5.45742e-07,0.0011
0.2024,5.44813e-07,0.0011
0.2128,5.35032e-07,0.0011
0.2237,5.21334e-07,0.0011
0.2352,5.11926e-07,0.0012
0.2472,4.96998e-07,0.0012
0.2732,9.48634e-07,0.0009
0.2872,4.46996e-07,0.0013
0.2945,2.18937e-07,0.0018
0.2972,7.80523e-08,0.0031
0.2985,3.7169e-08,0.0043
0.302,9.89105e-08,0.0027
0.3337,8.0613e-07,0.0009
0.3688,7.30136e-07,0.001
0.3877,3.3552e-07,0.0015
0.4076,3.18093e-07,0.0015
0.4505,5.67349e-07,0.0012
0.4979,4.80704e-07,0.0013
0.5234,2.08208e-07,0.0019
0.5502,1.8651e-07,0.0021
0.5784,1.65428e-07,0.0022
0.6081,1.45908e-07,0.0024
0.6393,1.25326e-07,0.0026
0.6721,1.06226e-07,0.0028
0.7065,8.80344e-08,0.0031
0.7427,7.13011e-08,0.0037
0.7808,5.59039e-08,0.004
0.8209,4.284e-08,0.0045
0.8629,3.09197e-08,0.0051
0.9072,2.05973e-08,0.0066
0.9617,1.55992e-08,0.0073
1.003,7.93314e-09,0.0099
1.108,1.1046e-08,0.0096
1.165,4.85575e-09,0.0138
1.225,4.54475e-09,0.0141
1.287,4.00806e-09,0.0152
1.353,3.65675e-09,0.0171
1.423,3.31323e-09,0.0172
1.496,3.11026e-09,0.017
1.572,2.88524e-09,0.0169
1.653,2.92052e-09,0.0177
1.738,2.79128e-09,0.0246
1.827,2.358e-09,0.0182
1.921,2.10706e-09,0.0193
2.019,1.72803e-09,0.0227
2.122,1.6948e-09,0.0222
2.231,1.61312e-09,0.0224
2.307,1.01751e-09,0.0304
2.346,4.80859e-10,0.0381
2.365,2.06034e-10,0.0561
2.385,2.28152e-10,0.0604
2.466,8.18809e-10,0.0391
2.592,1.04271e-09,0.0259
2.725,1.05466e-09,0.0282
2.865,9.93911e-10,0.0261
3.012,7.74231e-10,0.0307
3.166,7.33606e-10,0.0338
3.329,6.63252e-10,0.0321
3.679,1.27655e-09,0.0254
4.066,1.18021e-09,0.024
4.493,1.11756e-09,0.0253
4.724,5.48012e-10,0.0374
4.966,5.37335e-10,0.0361
5.22,5.3728e-10,0.0337
5.488,5.21868e-10,0.0334
5.77,5.09015e-10,0.0334
6.065,5.26933e-10,0.0365
6.376,5.43848e-10,0.0332
6.592,3.79154e-10,0.0404
6.703,1.89088e-10,0.0528
7.047,5.67655e-10,0.0334
7.408,6.44564e-10,0.0311
7.788,6.58412e-10,0.0301
8.187,7.19419e-10,0.0277
8.607,7.72134e-10,0.0276
9.048,8.63023e-10,0.0247
9.512,1.0444e-09,0.0242
10.0,1.35015e-09,0.0216
10.51,2.02524e-09,0.0153
11.05,2.29731e-09,0.0143
11.62,2.41327e-09,0.016
12.21,2.57007e-09,0.0132
12.52,1.37623e-09,0.0177
12.84,1.47492e-09,0.0169
13.5,2.97959e-09,0.0119
13.84,1.45364e-09,0.0171
14.19,3.28855e-10,0.0341
14.55,0.0,0.0
14.92,0.0,0.0
15.68,0.0,0.0
16.49,0.0,0.0
16.9,0.0,0.0
17.33,0.0,0.0
19.64,0.0,0.0
