Energy,Value,Error
1e-07,8.328595567803231e-12,0.0524
4.14e-07,3.2433474072691084e-10,0.0196
5.316e-07,8.298998381518828e-10,0.0293
6.826e-07,1.0127882555646566e-09,0.0257
8.764e-07,1.4045295669465137e-09,0.0225
1.125e-06,1.871380081649943e-09,0.0213
1.445e-06,2.500596362581056e-09,0.0192
1.855e-06,3.1333433152981104e-09,0.0181
2.382e-06,3.9537059302042295e-09,0.0149
3.059e-06,5.050018585467275e-09,0.0134
3.928e-06,6.602002272473515e-09,0.0117
5.043e-06,8.484106194587513e-09,0.0111
6.476e-06,1.0793760777386888e-08,0.0094
8.315e-06,1.3559793878202692e-08,0.0086
1.068e-05,1.7145181954682415e-08,0.0075
1.371e-05,2.150523641707372e-08,0.0069
1.76e-05,2.6751126314575877e-08,0.006
2.26e-05,3.404549414258218e-08,0.0058
2.902e-05,4.302431787972808e-08,0.005
3.727e-05,5.389293846995306e-08,0.0044
4.785e-05,6.743291925629591e-08,0.0039
6.144e-05,8.466619648930471e-08,0.0035
7.889e-05,1.0625961024043916e-07,0.0032
0.0001013,1.3261106071523399e-07,0.0028
0.0001301,1.6439092559975592e-07,0.0025
0.000167,2.0467504755725528e-07,0.0023
0.0002145,2.556109834275746e-07,0.0021
0.0002754,3.1674948750258543e-07,0.0019
0.0003536,3.924058392422344e-07,0.0017
0.000454,4.863384876141215e-07,0.0015
0.0005829,6.017522987964492e-07,0.0014
0.0007485,7.447584884240081e-07,0.0012
0.0009611,9.227212116701494e-07,0.0011
0.001234,1.1419923897431423e-06,0.001
0.001585,1.4164112666747722e-06,0.0009
0.002035,1.7516046876698748e-06,0.0008
0.002249,2.0341363817966848e-06,0.0012
0.002485,2.2115709430915053e-06,0.0011
0.002613,2.357508643302743e-06,0.0015
0.002747,2.461467001986584e-06,0.0015
0.003035,2.629575678018379e-06,0.001
0.003355,2.8561254193078597e-06,0.001
0.003707,3.1086039236636373e-06,0.0009
0.004307,3.4528966221262005e-06,0.0007
0.005531,4.06497458737852e-06,0.0005
0.007102,4.904646906187555e-06,0.0005
0.009119,5.704771621815893e-06,0.0004
0.01059,6.103429855744121e-06,0.0005
0.01171,6.090834754632256e-06,0.0006
0.01503,5.148253702233932e-06,0.0004
0.0193,1.606074507898716e-06,0.0008
0.02187,1.7093571487466913e-07,0.0046
0.02358,9.288849258964626e-07,0.0023
0.02418,1.6484332508472213e-06,0.0029
0.02479,2.0577373910539946e-06,0.0025
0.02606,2.6947297278940587e-06,0.0015
0.027,3.413799782494061e-06,0.0016
0.0285,4.181794342079505e-06,0.0011
0.03183,5.50151714999003e-06,0.0007
0.03431,6.961876583541585e-06,0.0007
0.04087,9.040952540878319e-06,0.0004
0.04631,1.2129804052026002e-05,0.0004
0.05248,1.5738014874645485e-05,0.0003
0.05656,2.0020468324681503e-05,0.0004
0.06738,2.1438909548532645e-05,0.0002
0.07202,3.316974888081572e-06,0.0011
0.0795,7.552607102357385e-07,0.0024
0.0825,1.4786236410197634e-06,0.0026
0.08652,2.641112033399125e-06,0.0016
0.09804,4.629609571287498e-06,0.0007
0.1111,5.053618829099252e-06,0.0007
0.1168,7.207633237879441e-06,0.0009
0.1228,8.30441677834702e-06,0.0008
0.1291,9.178501106971526e-06,0.0008
0.1357,9.989456526480748e-06,0.0007
0.1426,1.0730702091172086e-05,0.0007
0.15,1.1494692017117657e-05,0.0007
0.1576,1.2217570570646875e-05,0.0006
0.1657,1.2887093922906476e-05,0.0006
0.1742,1.3507168599441206e-05,0.0006
0.1832,1.4224550033982925e-05,0.0006
0.1925,1.5084969163681828e-05,0.0006
0.2024,1.60142664829213e-05,0.0005
0.2128,1.613311319947919e-05,0.0005
0.2237,1.243748361627276e-05,0.0006
0.2352,6.038856998319618e-06,0.0009
0.2472,6.087777534972743e-06,0.001
0.2732,6.1417867958630095e-06,0.0007
0.2872,6.183347601841144e-06,0.0009
0.2945,6.202907204330513e-06,0.0013
0.2972,6.234831114269651e-06,0.0021
0.2985,6.20145627062373e-06,0.0031
0.302,6.2157565845571934e-06,0.0019
0.3337,6.232447067833751e-06,0.0007
0.3688,6.240714503775816e-06,0.0007
0.3877,6.2281009567393295e-06,0.0009
0.4076,6.22388136272032e-06,0.0009
0.4505,6.180064215659703e-06,0.0006
0.4979,6.098498845539951e-06,0.0006
0.5234,6.014807400145565e-06,0.0009
0.5502,5.93873840432642e-06,0.0009
0.5784,5.861496504300068e-06,0.0009
0.6081,5.76995839541513e-06,0.0009
0.6393,5.66075570358441e-06,0.0009
0.6721,5.573007128537776e-06,0.001
0.7065,5.455518380705865e-06,0.001
0.7427,5.352879582848836e-06,0.001
0.7808,5.256558235002526e-06,0.001
0.8209,5.145673899369166e-06,0.001
0.8629,5.0317741144740155e-06,0.001
0.9072,4.924584372295986e-06,0.001
0.9617,4.7806448859275406e-06,0.0009
1.003,4.6497788603493764e-06,0.0011
1.108,4.500352978758456e-06,0.0007
1.165,4.394661677993505e-06,0.001
1.225,4.312884271631502e-06,0.001
1.287,4.232164176487097e-06,0.0011
1.353,4.147775555902818e-06,0.0011
1.423,4.067008749270037e-06,0.0011
1.496,3.961856189641804e-06,0.0011
1.572,3.854375331176379e-06,0.0011
1.653,3.733764582273685e-06,0.0011
1.738,3.6041571170407443e-06,0.0011
1.827,3.4842236086999293e-06,0.0011
1.921,3.368984593972076e-06,0.0011
2.019,3.262571624611212e-06,0.0011
2.122,3.168879714115022e-06,0.0012
2.231,3.078963967065207e-06,0.0012
2.307,3.0144727402778225e-06,0.0014
2.346,2.972499438347697e-06,0.0021
2.365,2.9641327309387108e-06,0.003
2.385,2.935328278461895e-06,0.0028
2.466,2.9027242969861143e-06,0.0015
2.592,2.8403623860288945e-06,0.0012
2.725,2.751013487197143e-06,0.0012
2.865,2.6587067313815096e-06,0.0012
3.012,2.559239406742846e-06,0.0012
3.166,2.4544039969482664e-06,0.0013
3.329,2.3493617260544593e-06,0.0012
3.679,2.193559618956373e-06,0.0009
4.066,1.9747299537047298e-06,0.0009
4.493,1.7654054162086393e-06,0.001
4.724,1.621758551271234e-06,0.0014
4.966,1.5352033529572182e-06,0.0014
5.22,1.4541790734199246e-06,0.0014
5.488,1.3733477625482432e-06,0.0014
5.77,1.2922238834689261e-06,0.0015
6.065,1.1982099910865104e-06,0.0015
6.376,1.11804091106923e-06,0.0015
6.592,1.105767938154422e-06,0.0019
6.703,1.0982313122953176e-06,0.0026
7.047,1.0979241899281305e-06,0.0015
7.408,1.088341257965558e-06,0.0015
7.788,1.0772097688531042e-06,0.0016
8.187,1.0646023758433324e-06,0.0015
8.607,1.0576214862257752e-06,0.0015
9.048,1.049165288258409e-06,0.0015
9.512,1.0961015598371845e-06,0.0015
10.0,1.3250222456897401e-06,0.0013
10.51,2.2746932364498436e-06,0.001
11.05,2.3751755913702858e-06,0.001
11.62,2.4839492721585888e-06,0.0009
12.21,2.6193509438763787e-06,0.0009
12.52,2.710924129292667e-06,0.0013
12.84,2.7808379212562774e-06,0.0013
13.5,2.7946476330929506e-06,0.0009
13.84,2.632927388946667e-06,0.0013
14.19,7.945411294630729e-07,0.0024
14.55,0.0,0.0
14.92,0.0,0.0
15.68,0.0,0.0
16.49,0.0,0.0
16.9,0.0,0.0
17.33,0.0,0.0
19.64,0.0,0.0
