Energy,Value,Error
1e-07,0.0,0.0
4.14e-07,7.49917e-13,1.0
5.316e-07,1.57838e-12,0.5781
6.826e-07,2.52709e-12,0.5293
8.764e-07,4.64263e-12,0.3632
1.125e-06,3.63765e-12,0.4185
1.445e-06,1.00963e-11,0.2948
1.855e-06,1.04506e-11,0.2525
2.382e-06,2.42483e-11,0.1932
3.059e-06,4.05965e-11,0.1505
3.928e-06,6.44144e-11,0.1375
5.043e-06,1.06071e-10,0.0956
6.476e-06,1.83021e-10,0.0919
8.315e-06,2.78478e-10,0.0615
1.068e-05,4.19581e-10,0.0492
1.371e-05,7.40221e-10,0.0385
1.76e-05,1.20246e-09,0.0347
2.26e-05,2.00627e-09,0.0259
2.902e-05,3.09406e-09,0.0208
3.727e-05,4.90717e-09,0.0183
4.785e-05,7.32577e-09,0.0131
6.144e-05,1.0815e-08,0.0119
7.889e-05,1.59802e-08,0.0103
0.0001013,2.20354e-08,0.0088
0.0001301,2.87695e-08,0.0092
0.000167,3.42815e-08,0.0077
0.0002145,3.58071e-08,0.0075
0.0002754,3.003e-08,0.0085
0.0003536,1.9505e-08,0.0108
0.000454,8.89288e-09,0.0191
0.0005829,3.49366e-09,0.0262
0.0007485,1.60543e-09,0.0383
0.0009611,7.79952e-10,0.0774
0.001234,2.05512e-10,0.099
0.001585,7.65496e-12,0.4501
0.002035,2.41271e-10,0.1035
0.002249,5.24018e-10,0.0864
0.002485,1.50347e-09,0.0436
0.002613,1.51831e-09,0.0392
0.002747,2.51275e-09,0.0361
0.003035,8.98956e-09,0.0159
0.003355,1.85588e-08,0.0097
0.003707,8.31328e-08,0.0044
0.004307,2.18056e-07,0.0027
0.005531,1.17209e-08,0.0162
0.007102,3.45504e-07,0.0023
0.009119,1.79575e-07,0.0035
0.01059,5.09572e-08,0.0075
0.01171,1.95879e-07,0.0034
0.01503,7.84558e-07,0.0016
0.0193,1.80529e-06,0.0011
0.02187,3.86247e-07,0.0027
0.02358,4.26475e-07,0.0023
0.02418,8.12114e-08,0.0065
0.02479,1.87152e-07,0.0039
0.02606,1.18941e-06,0.0013
0.027,2.01978e-07,0.0033
0.0285,6.20109e-08,0.0079
0.03183,6.4585e-07,0.0019
0.03431,3.24409e-07,0.0031
0.04087,1.57588e-06,0.0012
0.04631,5.38958e-07,0.0024
0.05248,5.62802e-07,0.0022
0.05656,3.42208e-07,0.0029
0.06738,7.95318e-07,0.0018
0.07202,2.92285e-07,0.0031
0.0795,4.08603e-07,0.0026
0.0825,1.44451e-07,0.0043
0.08652,1.77682e-07,0.0039
0.09804,4.33052e-07,0.0025
0.1111,4.11667e-07,0.0026
0.1168,1.77717e-07,0.0039
0.1228,1.86717e-07,0.0038
0.1291,1.9371e-07,0.0037
0.1357,2.02738e-07,0.0036
0.1426,2.11176e-07,0.0035
0.15,2.27136e-07,0.0034
0.1576,2.35882e-07,0.0034
0.1657,2.50942e-07,0.0034
0.1742,2.659e-07,0.0032
0.1832,2.84666e-07,0.003
0.1925,2.96373e-07,0.003
0.2024,3.22581e-07,0.0029
0.2128,3.39121e-07,0.0029
0.2237,3.52134e-07,0.0028
0.2352,3.68704e-07,0.0027
0.2472,3.81936e-07,0.0026
0.2732,8.18854e-07,0.0017
0.2872,4.3727e-07,0.0024
0.2945,2.25316e-07,0.0033
0.2972,8.37644e-08,0.0054
0.2985,4.0297e-08,0.0077
0.302,1.07979e-07,0.0048
0.3337,9.51843e-07,0.0018
0.3688,9.87513e-07,0.0016
0.3877,5.01876e-07,0.0022
0.4076,5.07278e-07,0.0022
0.4505,1.04608e-06,0.0015
0.4979,1.09814e-06,0.0015
0.5234,5.66608e-07,0.0021
0.5502,5.78186e-07,0.0021
0.5784,5.93037e-07,0.0021
0.6081,6.05108e-07,0.002
0.6393,6.18665e-07,0.002
0.6721,6.30347e-07,0.0019
0.7065,6.36865e-07,0.0019
0.7427,6.49653e-07,0.0019
0.7808,6.49396e-07,0.0019
0.8209,6.46714e-07,0.0019
0.8629,6.28359e-07,0.0019
0.9072,6.0504e-07,0.0019
0.9617,6.55752e-07,0.0019
1.003,4.18353e-07,0.0023
1.108,8.93568e-07,0.0016
1.165,4.47075e-07,0.0023
1.225,4.40555e-07,0.0024
1.287,4.24066e-07,0.0024
1.353,4.19277e-07,0.0024
1.423,4.1056e-07,0.0024
1.496,3.90022e-07,0.0025
1.572,3.72418e-07,0.0025
1.653,3.61028e-07,0.0026
1.738,3.40155e-07,0.0026
1.827,3.20037e-07,0.0027
1.921,2.95048e-07,0.0028
2.019,2.70602e-07,0.003
2.122,2.57157e-07,0.0031
2.231,2.44821e-07,0.0031
2.307,1.54191e-07,0.0038
2.346,7.39965e-08,0.0058
2.365,3.46601e-08,0.0081
2.385,3.60212e-08,0.0079
2.466,1.35618e-07,0.0041
2.592,1.92998e-07,0.0035
2.725,1.87108e-07,0.0034
2.865,1.76424e-07,0.0035
3.012,1.6596e-07,0.0036
3.166,1.58021e-07,0.0037
3.329,1.52207e-07,0.0037
3.679,2.7853e-07,0.0027
4.066,2.57642e-07,0.0027
4.493,2.39049e-07,0.0028
4.724,1.14224e-07,0.004
4.966,1.10403e-07,0.004
5.22,1.07159e-07,0.0042
5.488,1.05336e-07,0.004
5.77,1.02148e-07,0.004
6.065,1.01175e-07,0.004
6.376,1.00091e-07,0.004
6.592,6.63888e-08,0.0048
6.703,3.3548e-08,0.0067
7.047,9.89981e-08,0.004
7.408,1.00148e-07,0.0039
7.788,1.00652e-07,0.0038
8.187,1.04241e-07,0.0037
8.607,1.07436e-07,0.0036
9.048,1.11131e-07,0.0038
9.512,1.18447e-07,0.0034
10.0,1.39785e-07,0.0031
10.51,2.70228e-07,0.0022
11.05,2.90653e-07,0.0021
11.62,3.10012e-07,0.0021
12.21,3.23626e-07,0.0021
12.52,1.70112e-07,0.0028
12.84,1.76821e-07,0.0027
13.5,3.60054e-07,0.0019
13.84,1.72537e-07,0.0027
14.19,6.78159e-08,0.0043
14.55,0.0,0.0
14.92,0.0,0.0
15.68,0.0,0.0
16.49,0.0,0.0
16.9,0.0,0.0
17.33,0.0,0.0
19.64,0.0,0.0
