Energy,Value,Error
1e-07,1.0163764807016343e-12,0.0999
4.14e-07,6.475728357022553e-11,0.0362
5.316e-07,1.8985834607494594e-10,0.0499
6.826e-07,2.681754028475897e-10,0.0392
8.764e-07,4.00814567610318e-10,0.0367
1.125e-06,5.612782701188625e-10,0.0343
1.445e-06,7.259045902465655e-10,0.0282
1.855e-06,9.453173695660845e-10,0.0265
2.382e-06,1.2638180428330756e-09,0.0238
3.059e-06,1.6179767838131223e-09,0.0197
3.928e-06,2.0451937460526954e-09,0.0177
5.043e-06,2.6447793233794236e-09,0.0157
6.476e-06,3.459258107118058e-09,0.0136
8.315e-06,4.516837440584533e-09,0.0128
1.068e-05,5.847229186122746e-09,0.011
1.371e-05,7.45349418775221e-09,0.0099
1.76e-05,9.440436491798591e-09,0.0088
2.26e-05,1.2156759815104318e-08,0.0077
2.902e-05,1.5420860034574662e-08,0.0068
3.727e-05,2.0060993077111694e-08,0.0063
4.785e-05,2.5558342193543994e-08,0.0055
6.144e-05,3.2562466283653375e-08,0.0052
7.889e-05,4.085748055491487e-08,0.0043
0.0001013,5.1793784038614834e-08,0.0039
0.0001301,6.525976124538634e-08,0.0034
0.000167,8.240604277704673e-08,0.0031
0.0002145,1.0370654564363909e-07,0.0028
0.0002754,1.304676383597329e-07,0.0024
0.0003536,1.6288475575179572e-07,0.0023
0.000454,2.0354588672491904e-07,0.002
0.0005829,2.514832368394395e-07,0.0018
0.0007485,3.124793560775833e-07,0.0016
0.0009611,3.8382485684349737e-07,0.0014
0.001234,4.724616568692124e-07,0.0013
0.001585,5.774648024786662e-07,0.0012
0.002035,7.010044035312662e-07,0.0011
0.002249,7.987840439691423e-07,0.0016
0.002485,8.597543923084807e-07,0.0015
0.002613,9.132541188854804e-07,0.0021
0.002747,9.454209634052874e-07,0.002
0.003035,9.945245100092237e-07,0.0014
0.003355,1.0712951858134786e-06,0.0013
0.003707,1.1454012077692759e-06,0.0013
0.004307,1.247657942499127e-06,0.001
0.005531,1.4232488475988843e-06,0.0007
0.007102,1.6601121812028943e-06,0.0007
0.009119,1.9150927535035297e-06,0.0006
0.01059,2.1228617677465786e-06,0.0008
0.01171,2.260083349018109e-06,0.0009
0.01503,2.4421863990063773e-06,0.0006
0.0193,2.692139353659821e-06,0.0005
0.02187,2.8698174533434987e-06,0.0007
0.02358,2.968064777810376e-06,0.0009
0.02418,3.0113364243116406e-06,0.0016
0.02479,3.0328883738523213e-06,0.0016
0.02606,3.067738991732029e-06,0.0011
0.027,3.1150016433257853e-06,0.0013
0.0285,3.160066228406868e-06,0.001
0.03183,3.2500294052977885e-06,0.0007
0.03431,3.390125063232751e-06,0.0009
0.04087,3.696736783055215e-06,0.0005
0.04631,4.463898491241976e-06,0.0006
0.05248,9.736858320271846e-06,0.0003
0.05656,1.8787662772475527e-05,0.0003
0.06738,1.5657179323958078e-06,0.0009
0.07202,2.6121837947752347e-06,0.001
0.0795,2.818035475307197e-06,0.0008
0.0825,2.7953953874356886e-06,0.0012
0.08652,2.7339714281288842e-06,0.0011
0.09804,2.385976809799503e-06,0.0007
0.1111,1.2587327680853417e-06,0.001
0.1168,1.544052264804862e-06,0.0014
0.1228,2.190843609967353e-06,0.0011
0.1291,3.309995325192746e-06,0.0009
0.1357,8.817317399976506e-06,0.0005
0.1426,4.075735223911408e-05,0.0002
0.15,9.316630943187315e-05,0.0001
0.1576,8.197429568323985e-05,0.0002
0.1657,2.092570270795362e-05,0.0003
0.1742,2.5684485847766347e-06,0.0012
0.1832,6.422172337766945e-07,0.0027
0.1925,4.528097897581175e-07,0.0034
0.2024,5.68331464373933e-07,0.003
0.2128,7.998172695187378e-07,0.0025
0.2237,1.087395737352701e-06,0.0021
0.2352,1.4121845048034227e-06,0.0019
0.2472,1.7446134727274803e-06,0.0016
0.2732,2.2429264053147974e-06,0.001
0.2872,2.7319018244948044e-06,0.0013
0.2945,2.9755779402124375e-06,0.0017
0.2972,3.079152556043404e-06,0.0027
0.2985,3.1321398046768674e-06,0.0039
0.302,3.1270082899373133e-06,0.0024
0.3337,3.5219225826328696e-06,0.0008
0.3688,4.084665513451929e-06,0.0007
0.3877,4.485771785971138e-06,0.0009
0.4076,4.650494990422557e-06,0.0009
0.4505,4.746173400826747e-06,0.0006
0.4979,4.789347909380985e-06,0.0006
0.5234,3.933149870660396e-06,0.0009
0.5502,4.407073535448683e-06,0.0009
0.5784,3.0697332211423627e-06,0.0012
0.6081,6.0017768281947245e-06,0.0008
0.6393,6.403863172752805e-06,0.0007
0.6721,6.042494344856158e-06,0.0007
0.7065,5.910482145223195e-06,0.0008
0.7427,4.862235310300421e-06,0.0008
0.7808,4.308547135392953e-06,0.0008
0.8209,2.8976525354389e-06,0.0011
0.8629,2.8955352589056005e-06,0.0011
0.9072,4.612384758679866e-06,0.0008
0.9617,2.7406761209567356e-06,0.0011
1.003,3.1132102483903285e-06,0.0012
1.108,5.540146848820527e-06,0.0006
1.165,7.5572767570811575e-06,0.0006
1.225,5.113127092734436e-06,0.0008
1.287,5.734926269945673e-06,0.0007
1.353,4.091027382874297e-06,0.0009
1.423,4.184031993727518e-06,0.0009
1.496,3.2128690380193262e-06,0.001
1.572,2.8947721094417143e-06,0.001
1.653,1.8976287864069782e-06,0.0014
1.738,3.3846258896200116e-06,0.001
1.827,4.347915711215713e-06,0.0008
1.921,1.994972897494268e-06,0.0013
2.019,2.2466230517669728e-06,0.0012
2.122,3.0756862362567243e-06,0.001
2.231,2.5833846849735852e-06,0.0011
2.307,2.728130816932663e-06,0.0013
2.346,2.6592047752571257e-06,0.0018
2.365,2.796112107745368e-06,0.0025
2.385,2.1888583147809844e-06,0.0028
2.466,3.054797994760055e-06,0.0011
2.592,1.968918849750409e-06,0.0013
2.725,2.1940240358675952e-06,0.0011
2.865,2.043576033806301e-06,0.0012
3.012,2.3275060682982582e-06,0.001
3.166,1.7744132827726662e-06,0.0023
3.329,2.3725276736351223e-06,0.001
3.679,3.0546364018144575e-06,0.0006
4.066,2.1504270296829244e-06,0.0007
4.493,1.6445673484393342e-06,0.0008
4.724,1.1866696255973423e-06,0.0013
4.966,1.010663013705109e-06,0.0015
5.22,9.48466822256223e-07,0.0015
5.488,1.4135223395776158e-06,0.0011
5.77,8.698558043330873e-07,0.0015
6.065,9.036838195444871e-07,0.0014
6.376,8.957393616301198e-07,0.0013
6.592,9.83321719224055e-07,0.0015
6.703,9.302211509074049e-07,0.0022
7.047,7.529651196987076e-07,0.0014
7.408,7.354483780416857e-07,0.0014
7.788,6.551568948009301e-07,0.0016
8.187,7.482390692436464e-07,0.0014
8.607,9.226818493031511e-07,0.0012
9.048,9.65835812644854e-07,0.0012
9.512,9.90001672273183e-07,0.0012
10.0,1.1557369777638598e-06,0.0011
10.51,1.6530547242339185e-06,0.0009
11.05,1.8059190273318775e-06,0.0009
11.62,1.8761853217704808e-06,0.0008
12.21,1.7696034537901465e-06,0.0009
12.52,1.6698656071723826e-06,0.0012
12.84,1.7084204439676915e-06,0.0012
13.5,1.6212786742709775e-06,0.0009
13.84,1.4956380025372088e-06,0.0013
14.19,4.1984755625249075e-07,0.0026
14.55,0.0,0.0
14.92,0.0,0.0
15.68,0.0,0.0
16.49,0.0,0.0
16.9,0.0,0.0
17.33,0.0,0.0
19.64,0.0,0.0
