Energy,Value,Error
1e-07,2.92202e-10,0.0381
4.14e-07,1.27072e-09,0.0238
5.316e-07,4.60008e-10,0.039
6.826e-07,5.34797e-10,0.0375
8.764e-07,6.93749e-10,0.0303
1.125e-06,8.47063e-10,0.0282
1.445e-06,1.07326e-09,0.0279
1.855e-06,1.27921e-09,0.0239
2.382e-06,1.55101e-09,0.0225
3.059e-06,1.97269e-09,0.0198
3.928e-06,2.35204e-09,0.0188
5.043e-06,2.82882e-09,0.017
6.476e-06,3.40562e-09,0.0152
8.315e-06,4.14563e-09,0.0143
1.068e-05,4.9678e-09,0.0134
1.371e-05,5.77234e-09,0.0116
1.76e-05,7.11197e-09,0.0114
2.26e-05,8.49212e-09,0.0102
2.902e-05,1.0155e-08,0.0091
3.727e-05,1.21489e-08,0.0092
4.785e-05,1.42093e-08,0.0077
6.144e-05,1.70631e-08,0.0075
7.889e-05,2.00011e-08,0.0066
0.0001013,2.36115e-08,0.0059
0.0001301,2.72891e-08,0.0055
0.000167,3.16657e-08,0.0049
0.0002145,3.6901e-08,0.0046
0.0002754,4.26492e-08,0.0044
0.0003536,4.9256e-08,0.0041
0.000454,5.68953e-08,0.0041
0.0005829,6.41705e-08,0.0036
0.0007485,7.22505e-08,0.0034
0.0009611,8.1373e-08,0.0031
0.001234,9.21869e-08,0.0029
0.001585,1.0594e-07,0.0026
0.002035,1.30405e-07,0.0024
0.002249,1.5879e-07,0.0019
0.002485,4.44787e-08,0.0042
0.002613,3.01657e-08,0.0056
0.002747,3.21681e-08,0.0049
0.003035,6.9101e-08,0.0034
0.003355,7.55935e-08,0.0031
0.003707,8.21996e-08,0.003
0.004307,1.4166e-07,0.0023
0.005531,3.89687e-07,0.0014
0.007102,1.97399e-06,0.0005
0.009119,3.91873e-07,0.0015
0.01059,3.4325e-07,0.0015
0.01171,2.77765e-07,0.0017
0.01503,8.00516e-07,0.001
0.0193,4.62736e-06,0.0003
0.02187,2.76228e-07,0.0019
0.02358,3.66239e-07,0.0014
0.02418,6.0474e-08,0.0039
0.02479,7.79436e-08,0.0034
0.02606,2.33812e-07,0.0019
0.027,1.84062e-07,0.0021
0.0285,3.02127e-07,0.0017
0.03183,6.15397e-07,0.0012
0.03431,5.01352e-07,0.0013
0.04087,1.96842e-06,0.0005
0.04631,9.04187e-07,0.0009
0.05248,9.78761e-07,0.0009
0.05656,8.92937e-07,0.0009
0.06738,2.47156e-06,0.0005
0.07202,9.88102e-07,0.0009
0.0795,1.51727e-06,0.0007
0.0825,5.91541e-07,0.0011
0.08652,7.73893e-07,0.001
0.09804,2.14022e-06,0.0006
0.1111,2.31566e-06,0.0006
0.1168,9.79151e-07,0.0009
0.1228,1.00968e-06,0.0009
0.1291,1.0283e-06,0.0008
0.1357,1.04455e-06,0.0008
0.1426,1.05477e-06,0.0008
0.15,1.09047e-06,0.0008
0.1576,1.07099e-06,0.0008
0.1657,1.08276e-06,0.0009
0.1742,1.06517e-06,0.0008
0.1832,1.06321e-06,0.0008
0.1925,1.013e-06,0.0009
0.2024,8.51544e-07,0.0009
0.2128,4.3673e-07,0.0014
0.2237,4.3925e-07,0.0014
0.2352,4.44345e-07,0.0014
0.2472,4.44035e-07,0.0014
0.2732,8.96946e-07,0.001
0.2872,4.52072e-07,0.0014
0.2945,2.2719e-07,0.002
0.2972,8.27505e-08,0.0033
0.2985,3.97585e-08,0.0047
0.302,1.0535e-07,0.0029
0.3337,8.98853e-07,0.001
0.3688,8.89098e-07,0.001
0.3877,4.377e-07,0.0014
0.4076,4.3341e-07,0.0014
0.4505,8.50975e-07,0.001
0.4979,8.20324e-07,0.001
0.5234,3.92927e-07,0.0015
0.5502,3.80344e-07,0.0015
0.5784,3.64458e-07,0.0016
0.6081,3.46799e-07,0.0016
0.6393,3.28152e-07,0.0016
0.6721,3.07346e-07,0.0017
0.7065,2.81226e-07,0.0018
0.7427,2.52974e-07,0.0018
0.7808,2.23225e-07,0.0021
0.8209,1.9207e-07,0.0021
0.8629,1.58172e-07,0.0024
0.9072,1.27275e-07,0.0026
0.9617,1.1226e-07,0.0027
1.003,6.5008e-08,0.0036
1.108,1.28473e-07,0.0026
1.165,5.38479e-08,0.0039
1.225,4.92873e-08,0.0041
1.287,4.4566e-08,0.0045
1.353,4.11405e-08,0.0043
1.423,3.83324e-08,0.0046
1.496,3.51286e-08,0.0052
1.572,3.17319e-08,0.0049
1.653,2.93638e-08,0.005
1.738,2.65818e-08,0.0055
1.827,2.45206e-08,0.0057
1.921,2.219e-08,0.0057
2.019,2.04479e-08,0.0061
2.122,1.86139e-08,0.0063
2.231,1.67529e-08,0.0065
2.307,1.0379e-08,0.0087
2.346,4.78148e-09,0.0121
2.365,2.23504e-09,0.0175
2.385,2.34546e-09,0.0171
2.466,8.97338e-09,0.0088
2.592,1.22902e-08,0.0076
2.725,1.13744e-08,0.008
2.865,1.03203e-08,0.008
3.012,9.53057e-09,0.0087
3.166,9.00058e-09,0.0093
3.329,8.40684e-09,0.0097
3.679,1.59191e-08,0.0065
4.066,1.48067e-08,0.0065
4.493,1.47804e-08,0.0067
4.724,7.84039e-09,0.0093
4.966,7.87444e-09,0.0085
5.22,8.22214e-09,0.0085
5.488,8.48119e-09,0.0082
5.77,8.84349e-09,0.008
6.065,9.61795e-09,0.0121
6.376,1.00181e-08,0.0077
6.592,6.77957e-09,0.0089
6.703,3.469e-09,0.0127
7.047,1.09364e-08,0.0072
7.408,1.14726e-08,0.0068
7.788,1.21696e-08,0.0065
8.187,1.33719e-08,0.0062
8.607,1.41859e-08,0.0059
9.048,1.52252e-08,0.0058
9.512,1.67373e-08,0.0055
10.0,2.08422e-08,0.0049
10.51,3.48471e-08,0.0035
11.05,3.73851e-08,0.0034
11.62,3.99068e-08,0.0032
12.21,4.09637e-08,0.0032
12.52,2.1224e-08,0.0043
12.84,2.18748e-08,0.0042
13.5,4.37539e-08,0.003
13.84,2.07564e-08,0.0042
14.19,6.09417e-09,0.0074
14.55,0.0,0.0
14.92,0.0,0.0
15.68,0.0,0.0
16.49,0.0,0.0
16.9,0.0,0.0
17.33,0.0,0.0
19.64,0.0,0.0
