Energy,Value,Error
1e-07,0.0,0.0
4.14e-07,2.21211e-12,0.27
5.316e-07,4.47333e-12,0.216
6.826e-07,8.20096e-12,0.1625
8.764e-07,1.6864e-11,0.1096
1.125e-06,3.01136e-11,0.0902
1.445e-06,4.66383e-11,0.0711
1.855e-06,6.87013e-11,0.0585
2.382e-06,1.03532e-10,0.057
3.059e-06,1.5667e-10,0.0465
3.928e-06,2.29329e-10,0.0363
5.043e-06,3.34487e-10,0.0655
6.476e-06,4.41445e-10,0.0375
8.315e-06,6.0044e-10,0.0278
1.068e-05,8.75332e-10,0.0265
1.371e-05,1.10593e-09,0.0276
1.76e-05,1.41677e-09,0.019
2.26e-05,1.82636e-09,0.0173
2.902e-05,2.32274e-09,0.0182
3.727e-05,2.78294e-09,0.0146
4.785e-05,3.38519e-09,0.0133
6.144e-05,4.1818e-09,0.0126
7.889e-05,4.79791e-09,0.0129
0.0001013,5.38676e-09,0.0107
0.0001301,6.0048e-09,0.0188
0.000167,6.26325e-09,0.0101
0.0002145,6.00484e-09,0.0104
0.0002754,5.38187e-09,0.0101
0.0003536,4.31686e-09,0.0103
0.000454,3.9921e-09,0.0088
0.0005829,9.7631e-09,0.006
0.0007485,4.35558e-08,0.0032
0.0009611,3.18369e-08,0.0047
0.001234,3.4586e-08,0.0045
0.001585,3.13042e-08,0.0043
0.002035,2.40562e-08,0.0047
0.002249,7.28489e-09,0.0087
0.002485,6.07932e-09,0.0081
0.002613,2.72751e-09,0.0112
0.002747,2.61063e-09,0.0116
0.003035,1.13659e-08,0.0054
0.003355,2.35723e-08,0.0034
0.003707,5.50312e-09,0.0076
0.004307,1.30863e-08,0.005
0.005531,1.14856e-08,0.0047
0.007102,2.35016e-10,0.033
0.009119,3.2141e-10,0.0309
0.01059,3.94061e-10,0.0265
0.01171,4.43413e-10,0.024
0.01503,2.51372e-09,0.0107
0.0193,6.89691e-09,0.0064
0.02187,6.99997e-09,0.0066
0.02358,6.05492e-09,0.0069
0.02418,2.31128e-09,0.0106
0.02479,2.57681e-09,0.0106
0.02606,5.85041e-09,0.007
0.027,4.75966e-09,0.0077
0.0285,8.38012e-09,0.0065
0.03183,2.18132e-08,0.0039
0.03431,1.9177e-08,0.0038
0.04087,6.15497e-08,0.0022
0.04631,6.02099e-08,0.0022
0.05248,7.49625e-08,0.002
0.05656,5.22931e-08,0.0024
0.06738,1.45998e-07,0.0014
0.07202,6.56909e-08,0.0022
0.0795,1.0936e-07,0.0018
0.0825,4.48654e-08,0.0026
0.08652,6.09221e-08,0.0022
0.09804,1.80158e-07,0.0014
0.1111,2.0971e-07,0.0012
0.1168,9.16949e-08,0.0018
0.1228,9.64381e-08,0.0019
0.1291,1.00851e-07,0.0018
0.1357,1.04965e-07,0.0018
0.1426,1.08878e-07,0.0018
0.15,1.14956e-07,0.0017
0.1576,1.17176e-07,0.0018
0.1657,1.22893e-07,0.0017
0.1742,1.26538e-07,0.0016
0.1832,1.31292e-07,0.0016
0.1925,1.32835e-07,0.0016
0.2024,1.38124e-07,0.0016
0.2128,1.4187e-07,0.0015
0.2237,1.45158e-07,0.0015
0.2352,1.49284e-07,0.0015
0.2472,1.51356e-07,0.0015
0.2732,3.11708e-07,0.001
0.2872,1.59056e-07,0.0015
0.2945,8.05657e-08,0.0021
0.2972,2.94115e-08,0.0033
0.2985,1.40404e-08,0.005
0.302,3.76685e-08,0.003
0.3337,3.23147e-07,0.001
0.3688,3.2263e-07,0.001
0.3877,1.59612e-07,0.0015
0.4076,1.57218e-07,0.0015
0.4505,3.04838e-07,0.0011
0.4979,2.84505e-07,0.0012
0.5234,1.29335e-07,0.0017
0.5502,1.19064e-07,0.0019
0.5784,1.07316e-07,0.002
0.6081,9.48289e-08,0.0021
0.6393,8.20649e-08,0.0024
0.6721,6.98065e-08,0.0026
0.7065,6.04861e-08,0.0029
0.7427,5.42344e-08,0.0031
0.7808,4.92888e-08,0.0033
0.8209,4.51567e-08,0.0033
0.8629,4.14301e-08,0.0034
0.9072,3.80923e-08,0.0037
0.9617,4.0688e-08,0.0035
1.003,2.76632e-08,0.0042
1.108,6.07845e-08,0.003
1.165,2.83213e-08,0.0042
1.225,2.66487e-08,0.0043
1.287,2.5112e-08,0.0044
1.353,2.40601e-08,0.0044
1.423,2.28888e-08,0.0045
1.496,2.14227e-08,0.0047
1.572,1.94816e-08,0.0049
1.653,1.85783e-08,0.0053
1.738,1.68027e-08,0.0054
1.827,1.50186e-08,0.0056
1.921,1.34553e-08,0.0061
2.019,1.20221e-08,0.0063
2.122,1.10821e-08,0.0066
2.231,1.02483e-08,0.0068
2.307,6.35282e-09,0.0086
2.346,3.11932e-09,0.0121
2.365,1.39103e-09,0.018
2.385,1.44955e-09,0.017
2.466,5.50196e-09,0.0088
2.592,7.51465e-09,0.0076
2.725,6.64691e-09,0.0082
2.865,5.89554e-09,0.0085
3.012,5.14855e-09,0.0092
3.166,4.57074e-09,0.0095
3.329,4.10979e-09,0.0105
3.679,6.88031e-09,0.0077
4.066,5.46704e-09,0.0087
4.493,4.71024e-09,0.0095
4.724,2.09776e-09,0.0136
4.966,2.01205e-09,0.0139
5.22,1.98189e-09,0.0136
5.488,2.01363e-09,0.0141
5.77,2.03606e-09,0.0139
6.065,2.12323e-09,0.0138
6.376,2.19451e-09,0.0129
6.592,1.53938e-09,0.0165
6.703,7.78561e-10,0.0232
7.047,2.46708e-09,0.0132
7.408,2.68818e-09,0.0116
7.788,3.15392e-09,0.011
8.187,3.52719e-09,0.0104
8.607,3.80034e-09,0.0096
9.048,4.22584e-09,0.0095
9.512,4.99838e-09,0.0083
10.0,6.56788e-09,0.0079
10.51,1.08125e-08,0.0055
11.05,1.27401e-08,0.0052
11.62,1.24501e-08,0.0052
12.21,1.07672e-08,0.0054
12.52,5.25781e-09,0.0077
12.84,5.02609e-09,0.0076
13.5,9.20479e-09,0.0055
13.84,4.03306e-09,0.008
14.19,1.06862e-09,0.0151
14.55,0.0,0.0
14.92,0.0,0.0
15.68,0.0,0.0
16.49,0.0,0.0
16.9,0.0,0.0
17.33,0.0,0.0
19.64,0.0,0.0
