Energy,Value,Error
1e-07,0.0,0.0
4.14e-07,9.39326e-14,1.0
5.316e-07,3.18975e-13,0.7075
6.826e-07,1.7583e-12,0.4056
8.764e-07,4.55853e-12,0.1873
1.125e-06,1.68703e-11,0.1468
1.445e-06,1.86577e-11,0.1162
1.855e-06,2.44563e-11,0.0972
2.382e-06,4.17566e-11,0.1005
3.059e-06,5.90514e-11,0.0721
3.928e-06,8.98291e-11,0.0633
5.043e-06,1.10035e-10,0.0524
6.476e-06,1.66148e-10,0.0476
8.315e-06,2.29659e-10,0.0434
1.068e-05,3.33046e-10,0.0369
1.371e-05,4.59827e-10,0.0328
1.76e-05,6.19769e-10,0.0301
2.26e-05,8.05291e-10,0.0268
2.902e-05,1.06451e-09,0.0237
3.727e-05,1.33645e-09,0.0209
4.785e-05,1.76696e-09,0.019
6.144e-05,2.33153e-09,0.0164
7.889e-05,2.93303e-09,0.016
0.0001013,3.89792e-09,0.0129
0.0001301,5.02625e-09,0.0118
0.000167,6.23706e-09,0.0107
0.0002145,8.1085e-09,0.0094
0.0002754,1.0367e-08,0.0086
0.0003536,1.30786e-08,0.0074
0.000454,1.69051e-08,0.0065
0.0005829,2.1835e-08,0.0058
0.0007485,2.76863e-08,0.0051
0.0009611,3.5539e-08,0.0047
0.001234,4.43733e-08,0.0039
0.001585,5.47572e-08,0.0035
0.002035,7.20974e-08,0.0031
0.002249,3.45808e-08,0.0043
0.002485,3.73217e-08,0.0042
0.002613,2.03576e-08,0.0059
0.002747,2.19117e-08,0.0054
0.003035,4.71279e-08,0.0037
0.003355,5.39823e-08,0.0035
0.003707,6.09924e-08,0.0032
0.004307,1.08074e-07,0.0024
0.005531,2.69014e-07,0.0015
0.007102,5.23812e-07,0.001
0.009119,1.27393e-06,0.0006
0.01059,1.61001e-06,0.0005
0.01171,1.38044e-06,0.0005
0.01503,4.36994e-07,0.0009
0.0193,2.17427e-07,0.0015
0.02187,1.41363e-07,0.0019
0.02358,9.40294e-08,0.0024
0.02418,3.30521e-08,0.004
0.02479,3.35414e-08,0.004
0.02606,7.02238e-08,0.0027
0.027,5.23966e-08,0.0031
0.0285,8.41349e-08,0.0025
0.03183,1.88745e-07,0.0017
0.03431,1.35507e-07,0.002
0.04087,3.43684e-07,0.0013
0.04631,2.71854e-07,0.0015
0.05248,2.96003e-07,0.0014
0.05656,1.89488e-07,0.0018
0.06738,4.55285e-07,0.0012
0.07202,1.63551e-07,0.0019
0.0795,2.29062e-07,0.0016
0.0825,8.2152e-08,0.0031
0.08652,1.04898e-07,0.0023
0.09804,2.85554e-07,0.0014
0.1111,3.27502e-07,0.0013
0.1168,1.43095e-07,0.002
0.1228,1.51202e-07,0.0019
0.1291,1.59905e-07,0.0019
0.1357,1.68188e-07,0.0018
0.1426,1.77323e-07,0.0018
0.15,1.92572e-07,0.0017
0.1576,2.00042e-07,0.0017
0.1657,2.17758e-07,0.0016
0.1742,2.3366e-07,0.0016
0.1832,2.55106e-07,0.0016
0.1925,2.72111e-07,0.0014
0.2024,3.01862e-07,0.0014
0.2128,3.21346e-07,0.0013
0.2237,3.39944e-07,0.0013
0.2352,3.6104e-07,0.0013
0.2472,3.81548e-07,0.0012
0.2732,8.46027e-07,0.0008
0.2872,4.6857e-07,0.0011
0.2945,2.49042e-07,0.0015
0.2972,9.28367e-08,0.0024
0.2985,4.49127e-08,0.0036
0.302,1.20881e-07,0.0021
0.3337,1.11195e-06,0.0007
0.3688,1.25715e-06,0.0007
0.3877,6.88601e-07,0.0009
0.4076,7.33135e-07,0.0009
0.4505,1.56415e-06,0.0006
0.4979,1.66935e-06,0.0006
0.5234,8.60967e-07,0.0008
0.5502,8.66825e-07,0.0008
0.5784,8.64238e-07,0.0008
0.6081,8.5465e-07,0.0008
0.6393,8.34124e-07,0.0008
0.6721,8.02177e-07,0.0008
0.7065,7.61361e-07,0.0009
0.7427,7.14191e-07,0.0009
0.7808,6.57039e-07,0.0009
0.8209,5.99142e-07,0.001
0.8629,5.41348e-07,0.001
0.9072,4.91094e-07,0.0011
0.9617,5.16613e-07,0.001
1.003,3.43308e-07,0.0013
1.108,7.44371e-07,0.0009
1.165,3.38908e-07,0.0013
1.225,3.14951e-07,0.0013
1.287,2.84538e-07,0.0014
1.353,2.626e-07,0.0015
1.423,2.3543e-07,0.0015
1.496,2.03168e-07,0.0017
1.572,1.67702e-07,0.0018
1.653,1.33844e-07,0.0021
1.738,9.36922e-08,0.0025
1.827,6.25074e-08,0.0031
1.921,5.01325e-08,0.0036
2.019,4.07962e-08,0.0039
2.122,3.58125e-08,0.0042
2.231,2.95423e-08,0.0046
2.307,1.65986e-08,0.0065
2.346,7.69466e-09,0.0091
2.365,3.58806e-09,0.0133
2.385,3.51636e-09,0.0129
2.466,1.36839e-08,0.0069
2.592,1.82921e-08,0.0059
2.725,1.66394e-08,0.0059
2.865,1.40691e-08,0.0065
3.012,1.27168e-08,0.0067
3.166,1.17232e-08,0.0071
3.329,1.10252e-08,0.0075
3.679,1.92383e-08,0.0053
4.066,1.8109e-08,0.0055
4.493,1.77463e-08,0.0053
4.724,8.93961e-09,0.0073
4.966,9.17263e-09,0.0071
5.22,9.40634e-09,0.0071
5.488,9.76561e-09,0.0067
5.77,1.01736e-08,0.0068
6.065,1.03006e-08,0.0065
6.376,1.08416e-08,0.0064
6.592,7.34309e-09,0.0077
6.703,3.70863e-09,0.0107
7.047,1.14099e-08,0.0061
7.408,1.19473e-08,0.006
7.788,1.23117e-08,0.0059
8.187,1.32292e-08,0.0058
8.607,1.48067e-08,0.0054
9.048,1.59962e-08,0.0055
9.512,1.70881e-08,0.005
10.0,2.06942e-08,0.0046
10.51,3.83136e-08,0.0032
11.05,4.20008e-08,0.0031
11.62,4.53948e-08,0.003
12.21,4.67321e-08,0.0028
12.52,2.37656e-08,0.0044
12.84,2.4294e-08,0.0039
13.5,5.08981e-08,0.0027
13.84,2.54861e-08,0.0037
14.19,8.19237e-09,0.0062
14.55,0.0,0.0
14.92,0.0,0.0
15.68,0.0,0.0
16.49,0.0,0.0
16.9,0.0,0.0
17.33,0.0,0.0
19.64,0.0,0.0
