Energy,Value,Error
1e-07,0.0,0.0
4.14e-07,5.50197e-12,0.171
5.316e-07,8.66409e-12,0.1459
6.826e-07,1.47881e-11,0.1349
8.764e-07,3.01024e-11,0.115
1.125e-06,6.40467e-11,0.0938
1.445e-06,8.91913e-11,0.0672
1.855e-06,1.49144e-10,0.0451
2.382e-06,2.27255e-10,0.0316
3.059e-06,3.50972e-10,0.0247
3.928e-06,5.18962e-10,0.0212
5.043e-06,7.67292e-10,0.0178
6.476e-06,1.07437e-09,0.0151
8.315e-06,1.49998e-09,0.0125
1.068e-05,2.00145e-09,0.0114
1.371e-05,2.66381e-09,0.011
1.76e-05,3.54701e-09,0.0093
2.26e-05,4.40388e-09,0.0084
2.902e-05,5.61211e-09,0.0077
3.727e-05,7.14342e-09,0.0073
4.785e-05,8.76485e-09,0.0064
6.144e-05,1.09098e-08,0.0061
7.889e-05,1.32874e-08,0.0056
0.0001013,1.61573e-08,0.0055
0.0001301,1.94005e-08,0.0048
0.000167,2.31206e-08,0.0045
0.0002145,2.80419e-08,0.0041
0.0002754,3.35147e-08,0.0038
0.0003536,4.03223e-08,0.0035
0.000454,4.85931e-08,0.0032
0.0005829,5.8719e-08,0.0029
0.0007485,7.14169e-08,0.0026
0.0009611,8.63963e-08,0.0024
0.001234,1.01292e-07,0.0021
0.001585,1.09794e-07,0.002
0.002035,9.63089e-08,0.0021
0.002249,2.69826e-08,0.0039
0.002485,1.68853e-08,0.005
0.002613,4.30209e-09,0.0097
0.002747,2.08255e-09,0.0152
0.003035,7.9189e-10,0.0285
0.003355,3.12255e-10,0.0588
0.003707,3.82303e-09,0.0142
0.004307,2.43454e-08,0.0047
0.005531,1.67276e-07,0.0017
0.007102,1.20086e-06,0.0005
0.009119,3.2027e-06,0.0003
0.01059,6.69538e-07,0.0009
0.01171,2.69127e-06,0.0004
0.01503,1.25626e-06,0.0006
0.0193,1.41173e-06,0.0006
0.02187,3.30592e-06,0.0004
0.02358,2.97769e-06,0.0004
0.02418,1.4572e-06,0.0005
0.02479,2.10497e-06,0.0004
0.02606,2.50004e-06,0.0004
0.027,8.13619e-08,0.0027
0.0285,3.92701e-08,0.0048
0.03183,1.07328e-06,0.0007
0.03431,2.08358e-07,0.0017
0.04087,1.09527e-06,0.0007
0.04631,6.1104e-07,0.001
0.05248,4.79544e-07,0.0011
0.05656,6.07564e-07,0.0009
0.06738,1.4275e-06,0.0006
0.07202,1.26565e-06,0.0006
0.0795,1.95749e-07,0.0017
0.0825,6.74985e-08,0.003
0.08652,8.93111e-08,0.0027
0.09804,2.46486e-07,0.0016
0.1111,2.6084e-07,0.0015
0.1168,1.06875e-07,0.0025
0.1228,1.0783e-07,0.0024
0.1291,1.08391e-07,0.0024
0.1357,1.09262e-07,0.0023
0.1426,1.09708e-07,0.0024
0.15,1.12342e-07,0.0023
0.1576,1.08887e-07,0.0024
0.1657,1.07809e-07,0.0024
0.1742,1.04368e-07,0.0026
0.1832,1.04446e-07,0.0024
0.1925,1.04406e-07,0.0024
0.2024,1.09673e-07,0.0024
0.2128,1.14984e-07,0.0023
0.2237,1.1978e-07,0.0022
0.2352,1.26031e-07,0.0022
0.2472,1.32016e-07,0.0021
0.2732,2.84009e-07,0.0015
0.2872,1.51076e-07,0.002
0.2945,7.85341e-08,0.0027
0.2972,2.90895e-08,0.0044
0.2985,1.39059e-08,0.0069
0.302,3.74729e-08,0.0039
0.3337,3.36095e-07,0.0013
0.3688,3.62643e-07,0.0013
0.3877,1.89866e-07,0.0017
0.4076,1.96713e-07,0.0017
0.4505,4.06824e-07,0.0012
0.4979,4.2068e-07,0.0011
0.5234,2.11846e-07,0.0016
0.5502,2.09997e-07,0.0016
0.5784,2.0815e-07,0.0016
0.6081,2.05653e-07,0.0016
0.6393,2.01938e-07,0.0016
0.6721,1.96124e-07,0.0016
0.7065,1.88608e-07,0.0017
0.7427,1.80822e-07,0.0017
0.7808,1.72488e-07,0.0017
0.8209,1.62753e-07,0.0018
0.8629,1.52612e-07,0.0018
0.9072,1.42244e-07,0.0019
0.9617,1.51964e-07,0.0018
1.003,9.99992e-08,0.0022
1.108,2.06219e-07,0.0015
1.165,8.88653e-08,0.0023
1.225,7.95495e-08,0.0024
1.287,6.85273e-08,0.0026
1.353,6.07106e-08,0.0028
1.423,5.37584e-08,0.0029
1.496,4.69502e-08,0.0032
1.572,4.15634e-08,0.0034
1.653,3.75988e-08,0.0035
1.738,3.36558e-08,0.0038
1.827,3.01561e-08,0.0039
1.921,2.73024e-08,0.0041
2.019,2.46725e-08,0.0043
2.122,2.2207e-08,0.0045
2.231,2.01391e-08,0.0048
2.307,1.21196e-08,0.006
2.346,5.77268e-09,0.0088
2.365,2.73224e-09,0.013
2.385,2.72959e-09,0.0127
2.466,1.04307e-08,0.0063
2.592,1.42912e-08,0.0054
2.725,1.32587e-08,0.0059
2.865,1.23267e-08,0.0056
3.012,1.17522e-08,0.006
3.166,1.14589e-08,0.0062
3.329,1.11995e-08,0.0059
3.679,2.12149e-08,0.0042
4.066,2.09581e-08,0.0043
4.493,2.08528e-08,0.0043
4.724,1.05377e-08,0.0059
4.966,1.04587e-08,0.0059
5.22,1.06133e-08,0.0056
5.488,1.06368e-08,0.0056
5.77,1.05313e-08,0.0055
6.065,1.03689e-08,0.0055
6.376,1.02795e-08,0.0054
6.592,6.7821e-09,0.0066
6.703,3.35835e-09,0.0096
7.047,1.01118e-08,0.0053
7.408,9.95479e-09,0.0053
7.788,9.74018e-09,0.0053
8.187,9.60801e-09,0.0052
8.607,9.65473e-09,0.0053
9.048,9.82534e-09,0.0051
9.512,1.01013e-08,0.0051
10.0,1.2692e-08,0.0044
10.51,2.07819e-08,0.0034
11.05,2.22712e-08,0.0033
11.62,2.44563e-08,0.0031
12.21,2.69344e-08,0.003
12.52,1.46128e-08,0.004
12.84,1.53511e-08,0.0039
13.5,3.16502e-08,0.0027
13.84,1.4421e-08,0.0039
14.19,3.95696e-09,0.0076
14.55,0.0,0.0
14.92,0.0,0.0
15.68,0.0,0.0
16.49,0.0,0.0
16.9,0.0,0.0
17.33,0.0,0.0
19.64,0.0,0.0
