Energy,Value,Error
1e-07,6.183803315958562e-13,0.2601
4.14e-07,4.2421960081791504e-10,0.0342
5.316e-07,2.023694772954172e-09,0.035
6.826e-07,3.4303729974055643e-09,0.0269
8.764e-07,5.2503351196330855e-09,0.0262
1.125e-06,7.2516063260704975e-09,0.0179
1.445e-06,1.0612349359811976e-08,0.0149
1.855e-06,1.4789088025464655e-08,0.0149
2.382e-06,1.8872029659716334e-08,0.0131
3.059e-06,2.3776163101520598e-08,0.0101
3.928e-06,2.9600228642993583e-08,0.0096
5.043e-06,3.574836153078975e-08,0.0083
6.476e-06,4.198168948573798e-08,0.0086
8.315e-06,4.753437116618765e-08,0.0069
1.068e-05,5.5005414653383045e-08,0.0074
1.371e-05,6.100675763544253e-08,0.0069
1.76e-05,6.79519893809933e-08,0.0062
2.26e-05,7.428444471515693e-08,0.006
2.902e-05,8.129330799499228e-08,0.0058
3.727e-05,8.766505255734841e-08,0.0063
4.785e-05,9.366886018033587e-08,0.0055
6.144e-05,1.0116565838564809e-07,0.0055
7.889e-05,1.0800205632278816e-07,0.0053
0.0001013,1.1540165898553649e-07,0.0052
0.0001301,1.2211601586942345e-07,0.0051
0.000167,1.3108392022306815e-07,0.0047
0.0002145,1.4072856078222983e-07,0.0044
0.0002754,1.5119789925853323e-07,0.0044
0.0003536,1.6520729695528065e-07,0.0043
0.000454,1.811877039967826e-07,0.0042
0.0005829,2.0307344498638615e-07,0.0039
0.0007485,2.2797933495944094e-07,0.0035
0.0009611,2.6324315755670694e-07,0.0033
0.001234,3.0612623444951657e-07,0.0031
0.001585,4.1149555463338685e-07,0.0027
0.002035,6.209880494370324e-07,0.0021
0.002249,7.240894655189256e-07,0.0031
0.002485,7.961479019425486e-07,0.0029
0.002613,8.512886082355203e-07,0.004
0.002747,8.891406928605108e-07,0.0039
0.003035,9.069304950846397e-07,0.0027
0.003355,4.1298440885536096e-07,0.0039
0.003707,9.70076984850932e-07,0.0027
0.004307,1.9071024779718262e-06,0.0015
0.005531,3.6697913798723073e-06,0.0008
0.007102,2.1860557643823117e-05,0.0003
0.009119,4.968803679187964e-07,0.0029
0.01059,2.531601290595836e-06,0.0016
0.01171,5.9288083843446575e-06,0.0012
0.01503,2.4620898443677292e-05,0.0003
0.0193,3.0047562118841147e-07,0.0039
0.02187,7.336321734966011e-07,0.0037
0.02358,1.5704993837860608e-06,0.0033
0.02418,2.3158640352570447e-06,0.0042
0.02479,1.3602841248887253e-06,0.0056
0.02606,1.205392766429906e-06,0.0048
0.027,2.2975567605902415e-06,0.0038
0.0285,3.1646531110720645e-06,0.0023
0.03183,7.586741156460839e-07,0.0035
0.03431,1.35344831659557e-07,0.0118
0.04087,4.6402183084537e-07,0.004
0.04631,5.356260461240836e-07,0.0045
0.05248,6.666305593433584e-07,0.0044
0.05656,5.564667887252077e-07,0.0047
0.06738,7.631070396992758e-08,0.0098
0.07202,7.192214717081479e-08,0.0169
0.0795,7.489629663083249e-08,0.0148
0.0825,7.695929083105214e-08,0.0233
0.08652,7.834869555965244e-08,0.0183
0.09804,8.333442828366912e-08,0.0114
0.1111,9.048088852851737e-08,0.0109
0.1168,9.73657581086073e-08,0.0202
0.1228,9.734869092370333e-08,0.0166
0.1291,1.0145755296444517e-07,0.0157
0.1357,1.0857539851373061e-07,0.016
0.1426,1.0982431325136656e-07,0.017
0.15,1.1443142147065291e-07,0.0154
0.1576,1.1599562030341619e-07,0.0149
0.1657,1.1804505006816056e-07,0.0208
0.1742,1.2210660483355977e-07,0.0178
0.1832,1.2492082330176288e-07,0.014
0.1925,1.2814467976794552e-07,0.0167
0.2024,1.3245281458560585e-07,0.0153
0.2128,1.3828955803835967e-07,0.0162
0.2237,1.38009622584941e-07,0.0144
0.2352,1.4104729666986568e-07,0.0135
0.2472,1.371672616140871e-07,0.0144
0.2732,1.4388178852516928e-07,0.0102
0.2872,1.422145335974229e-07,0.0133
0.2945,1.4322375444870024e-07,0.0203
0.2972,1.365130084185513e-07,0.0303
0.2985,1.3946368791023342e-07,0.048
0.302,1.4445893344103e-07,0.0285
0.3337,1.4189999225098406e-07,0.0099
0.3688,1.4493445434349793e-07,0.0093
0.3877,1.4842102583593273e-07,0.014
0.4076,1.4569791552897326e-07,0.0131
0.4505,1.491109745545007e-07,0.0099
0.4979,1.4682054429213417e-07,0.0094
0.5234,1.4382281027494062e-07,0.0136
0.5502,1.4514719948838705e-07,0.0151
0.5784,1.3890794407069088e-07,0.0149
0.6081,1.3120987201164555e-07,0.0145
0.6393,1.310847891257067e-07,0.0144
0.6721,1.2094182564531663e-07,0.014
0.7065,1.2060907091310504e-07,0.0138
0.7427,1.1525967817261761e-07,0.0147
0.7808,1.1071216876978005e-07,0.0148
0.8209,1.0385113527381471e-07,0.0148
0.8629,9.862856852406775e-08,0.0161
0.9072,8.937438011162172e-08,0.0156
0.9617,8.338741501325359e-08,0.0159
1.003,7.454771662353862e-08,0.0182
1.108,6.792322908178335e-08,0.0134
1.165,5.955187588553279e-08,0.0189
1.225,5.708888637588091e-08,0.019
1.287,5.593634712934957e-08,0.0235
1.353,4.993499297355004e-08,0.0198
1.423,4.960849854826343e-08,0.0195
1.496,4.820822719653043e-08,0.0215
1.572,4.495193810024466e-08,0.0218
1.653,4.421639791382412e-08,0.0219
1.738,4.0881109956580154e-08,0.0218
1.827,3.98039652985632e-08,0.0222
1.921,3.9247283253305185e-08,0.0248
2.019,3.6517673538521354e-08,0.024
2.122,3.4520174574981784e-08,0.0227
2.231,3.3497518087623856e-08,0.0389
2.307,3.081670654085301e-08,0.0292
2.346,3.1512062455995506e-08,0.0424
2.365,3.415692029927446e-08,0.0627
2.385,2.8152608630091072e-08,0.0559
2.466,3.0697388837518244e-08,0.0354
2.592,2.8494127275254044e-08,0.0259
2.725,2.8499370200478214e-08,0.0269
2.865,2.462758322721122e-08,0.0266
3.012,2.48715125221334e-08,0.0311
3.166,2.395965806544736e-08,0.0303
3.329,2.1002730119562694e-08,0.0281
3.679,1.970240429154829e-08,0.023
4.066,1.6969919992519746e-08,0.0235
4.493,1.4685325101765832e-08,0.0241
4.724,1.4424017768009703e-08,0.0456
4.966,1.3291555231882666e-08,0.0356
5.22,1.2828491842429361e-08,0.0357
5.488,1.2474471814371024e-08,0.0334
5.77,1.2584549527463464e-08,0.034
6.065,1.153968292682494e-08,0.0352
6.376,1.179141091355854e-08,0.037
6.592,1.1914898964431983e-08,0.0502
6.703,1.1060763777531028e-08,0.0605
7.047,1.152395197472829e-08,0.0336
7.408,1.1488614861249355e-08,0.0367
7.788,1.1851428456689628e-08,0.0325
8.187,1.1858330126915452e-08,0.0319
8.607,1.1946119625671736e-08,0.031
9.048,1.2673372973243409e-08,0.036
9.512,1.3111547402827244e-08,0.0343
10.0,1.8562156111688108e-08,0.0343
10.51,2.8009678461979962e-08,0.02
11.05,2.9099713122768674e-08,0.0188
11.62,3.398411450977618e-08,0.0173
12.21,3.83053575132502e-08,0.0165
12.52,4.2075890915861214e-08,0.0223
12.84,4.4010340230726485e-08,0.0234
13.5,4.706471505392097e-08,0.0148
13.84,4.1700999471839624e-08,0.0212
14.19,7.670811653146815e-09,0.0501
14.55,0.0,0.0
14.92,0.0,0.0
15.68,0.0,0.0
16.49,0.0,0.0
16.9,0.0,0.0
17.33,0.0,0.0
19.64,0.0,0.0
