Energy,Value,Error
1e-07,1.24677e-12,0.7184
4.14e-07,6.24036e-11,0.1695
5.316e-07,4.80424e-11,0.2508
6.826e-07,3.9681e-11,0.1911
8.764e-07,1.18789e-10,0.1508
1.125e-06,1.28863e-10,0.1302
1.445e-06,1.94338e-10,0.1762
1.855e-06,1.76155e-10,0.1115
2.382e-06,3.31457e-10,0.1119
3.059e-06,3.93011e-10,0.0856
3.928e-06,6.36979e-10,0.071
5.043e-06,8.49145e-10,0.0632
6.476e-06,1.08276e-09,0.0516
8.315e-06,1.48537e-09,0.0477
1.068e-05,2.31219e-09,0.0378
1.371e-05,3.23276e-09,0.0317
1.76e-05,4.24881e-09,0.0272
2.26e-05,5.77342e-09,0.0234
2.902e-05,8.16206e-09,0.02
3.727e-05,1.20091e-08,0.018
4.785e-05,1.71827e-08,0.0157
6.144e-05,2.42879e-08,0.0121
7.889e-05,3.37463e-08,0.0109
0.0001013,4.75563e-08,0.0093
0.0001301,6.77373e-08,0.0074
0.000167,9.5978e-08,0.0062
0.0002145,1.37442e-07,0.0054
0.0002754,1.90566e-07,0.0047
0.0003536,2.65226e-07,0.0038
0.000454,3.6724e-07,0.0033
0.0005829,4.94798e-07,0.0028
0.0007485,6.38803e-07,0.0025
0.0009611,7.59312e-07,0.0023
0.001234,7.68506e-07,0.0023
0.001585,5.8744e-07,0.0026
0.002035,2.54484e-07,0.0041
0.002249,2.61386e-08,0.0135
0.002485,8.36597e-09,0.0263
0.002613,1.03257e-09,0.0812
0.002747,4.0376e-10,0.252
0.003035,6.27479e-10,0.0813
0.003355,3.26103e-09,0.0442
0.003707,1.18449e-08,0.0234
0.004307,4.82114e-08,0.0103
0.005531,2.13591e-07,0.0049
0.007102,3.99052e-07,0.0034
0.009119,5.85938e-07,0.0028
0.01059,4.36057e-07,0.0032
0.01171,3.28486e-07,0.0037
0.01503,9.30239e-07,0.0022
0.0193,1.09951e-06,0.0021
0.02187,6.01315e-07,0.0026
0.02358,3.76518e-07,0.0033
0.02418,1.27849e-07,0.0056
0.02479,1.27283e-07,0.0059
0.02606,2.57412e-07,0.0045
0.027,1.85267e-07,0.0047
0.0285,2.81419e-07,0.0038
0.03183,5.8319e-07,0.0027
0.03431,3.94646e-07,0.0033
0.04087,8.945e-07,0.0021
0.04631,6.41143e-07,0.0025
0.05248,4.38853e-07,0.003
0.05656,1.22233e-07,0.0064
0.06738,8.00075e-07,0.0023
0.07202,3.21724e-07,0.0037
0.0795,4.72148e-07,0.0029
0.0825,1.75706e-07,0.0047
0.08652,2.26305e-07,0.0044
0.09804,5.9854e-07,0.0025
0.1111,6.14529e-07,0.0025
0.1168,2.61729e-07,0.0039
0.1228,2.70298e-07,0.0038
0.1291,2.84191e-07,0.0037
0.1357,2.9268e-07,0.0036
0.1426,3.00986e-07,0.0036
0.15,3.16472e-07,0.0036
0.1576,3.2008e-07,0.0036
0.1657,3.33275e-07,0.0033
0.1742,3.46824e-07,0.0036
0.1832,3.45712e-07,0.0033
0.1925,3.14707e-07,0.0035
0.2024,1.89424e-07,0.0049
0.2128,1.96021e-07,0.0048
0.2237,2.29076e-07,0.0044
0.2352,2.75844e-07,0.0039
0.2472,1.53002e-07,0.0057
0.2732,7.89653e-07,0.0022
0.2872,4.7542e-07,0.003
0.2945,3.00951e-07,0.0034
0.2972,1.9229e-07,0.004
0.2985,5.36047e-08,0.0078
0.302,4.13469e-08,0.0101
0.3337,7.26535e-07,0.0023
0.3688,8.20371e-07,0.0021
0.3877,3.21085e-07,0.0035
0.4076,2.28218e-07,0.0044
0.4505,6.36479e-07,0.0025
0.4979,1.02128e-06,0.0019
0.5234,7.03122e-07,0.0021
0.5502,4.31951e-07,0.0028
0.5784,2.96822e-07,0.0036
0.6081,2.27319e-07,0.0041
0.6393,2.08465e-07,0.0041
0.6721,1.94303e-07,0.0046
0.7065,1.41986e-07,0.0057
0.7427,1.35182e-07,0.0058
0.7808,2.02967e-07,0.0045
0.8209,1.85164e-07,0.0051
0.8629,2.44319e-07,0.0038
0.9072,2.33627e-07,0.0042
0.9617,2.56026e-07,0.0037
1.003,1.82114e-07,0.0045
1.108,3.91798e-07,0.0031
1.165,2.3849e-07,0.0039
1.225,2.51089e-07,0.0038
1.287,2.79515e-07,0.0036
1.353,2.98911e-07,0.0035
1.423,3.30663e-07,0.0032
1.496,3.35368e-07,0.0032
1.572,3.48867e-07,0.003
1.653,2.82911e-07,0.0036
1.738,3.31481e-07,0.0032
1.827,2.83974e-07,0.0034
1.921,3.99319e-07,0.0028
2.019,2.93937e-07,0.0034
2.122,2.18288e-07,0.0039
2.231,2.33648e-07,0.0037
2.307,1.73198e-07,0.0044
2.346,9.51894e-08,0.0058
2.365,4.49714e-08,0.0083
2.385,4.5366e-08,0.0084
2.466,1.511e-07,0.0047
2.592,2.43988e-07,0.0036
2.725,2.64178e-07,0.0034
2.865,2.34058e-07,0.0036
3.012,2.28346e-07,0.0036
3.166,2.82189e-07,0.0032
3.329,2.34635e-07,0.0036
3.679,4.07638e-07,0.0028
4.066,4.14925e-07,0.0026
4.493,3.86071e-07,0.0027
4.724,1.94227e-07,0.0038
4.966,1.71647e-07,0.0039
5.22,1.71313e-07,0.0038
5.488,1.49697e-07,0.0041
5.77,1.4635e-07,0.0041
6.065,1.41941e-07,0.0041
6.376,1.29403e-07,0.0043
6.592,8.67722e-08,0.0052
6.703,4.23668e-08,0.0074
7.047,1.34378e-07,0.0041
7.408,1.3382e-07,0.004
7.788,1.32961e-07,0.004
8.187,1.31784e-07,0.0041
8.607,1.47582e-07,0.0037
9.048,1.58623e-07,0.0036
9.512,1.84983e-07,0.0034
10.0,2.09493e-07,0.0032
10.51,3.51882e-07,0.0023
11.05,3.7081e-07,0.0023
11.62,3.83238e-07,0.0022
12.21,3.86263e-07,0.0022
12.52,1.97922e-07,0.0031
12.84,2.0015e-07,0.0031
13.5,3.73569e-07,0.0022
13.84,1.7059e-07,0.0032
14.19,6.3026e-08,0.0053
14.55,0.0,0.0
14.92,0.0,0.0
15.68,0.0,0.0
16.49,0.0,0.0
16.9,0.0,0.0
17.33,0.0,0.0
19.64,0.0,0.0
