Energy,Value,Error
1e-07,1.921014781802654e-14,0.7142
4.14e-07,7.030083488319834e-12,0.1253
5.316e-07,4.839149251929408e-11,0.117
6.826e-07,9.09663560766862e-11,0.1056
8.764e-07,1.3593339421408496e-10,0.0823
1.125e-06,2.2706701432601144e-10,0.0639
1.445e-06,2.720665141216008e-10,0.0567
1.855e-06,3.7646505461202364e-10,0.0577
2.382e-06,4.5142728680035836e-10,0.0461
3.059e-06,6.881137535060219e-10,0.0448
3.928e-06,8.563150247583969e-10,0.0368
5.043e-06,1.0325057947480416e-09,0.033
6.476e-06,1.2111863557072823e-09,0.0295
8.315e-06,1.6134545645231966e-09,0.0343
1.068e-05,1.984992944952789e-09,0.0228
1.371e-05,2.4463683385667484e-09,0.0221
1.76e-05,2.8966694430453697e-09,0.0214
2.26e-05,3.116484184443927e-09,0.0192
2.902e-05,3.1910289011209418e-09,0.0177
3.727e-05,2.669439438965386e-09,0.0196
4.785e-05,1.2771087294293838e-09,0.0252
6.144e-05,1.335653581397206e-10,0.065
7.889e-05,8.880954873988985e-09,0.0103
0.0001013,1.9694764257961852e-08,0.0081
0.0001301,2.623059454423661e-08,0.007
0.000167,3.3690558763097804e-08,0.0062
0.0002145,4.2495498277120505e-08,0.0056
0.0002754,5.3022059753320596e-08,0.0049
0.0003536,6.532802287466431e-08,0.0044
0.000454,7.871616745172956e-08,0.004
0.0005829,9.264982348045336e-08,0.0036
0.0007485,1.244467435489867e-07,0.0032
0.0009611,1.4423421260990398e-07,0.0029
0.001234,1.8980566720197726e-07,0.0026
0.001585,2.1515880013655356e-07,0.0024
0.002035,2.5228659869948376e-07,0.0022
0.002249,3.69268465673436e-07,0.0028
0.002485,1.2068106687821223e-06,0.0013
0.002613,3.362360142998623e-07,0.0044
0.002747,4.091767228681928e-07,0.004
0.003035,4.6138785553573916e-07,0.0026
0.003355,5.096331176346318e-07,0.0025
0.003707,5.323703095163255e-07,0.0025
0.004307,6.559576364187743e-07,0.0018
0.005531,1.660568265658986e-06,0.0008
0.007102,1.1700794771000973e-06,0.0011
0.009119,1.6942183652428437e-06,0.0009
0.01059,3.1172782799347655e-06,0.0008
0.01171,2.3698781231131737e-06,0.0012
0.01503,2.817767778291938e-06,0.0007
0.0193,3.629490042091105e-06,0.0006
0.02187,4.26705741614714e-06,0.0008
0.02358,4.994563158027113e-06,0.0009
0.02418,4.753660895252458e-06,0.0017
0.02479,3.55141772639121e-06,0.002
0.02606,4.50133072349479e-06,0.0012
0.027,5.250076333074011e-06,0.0013
0.0285,5.494900477959861e-06,0.0011
0.03183,5.569613521302079e-06,0.0007
0.03431,5.943411590178801e-06,0.0009
0.04087,6.224471200905751e-06,0.0005
0.04631,7.731493697435216e-06,0.0006
0.05248,7.2381420408708145e-06,0.0006
0.05656,7.429957449416467e-06,0.0008
0.06738,9.372267700685273e-06,0.0004
0.07202,8.931157902513423e-06,0.0007
0.0795,8.570457320881376e-06,0.0006
0.0825,5.6275065769565815e-06,0.0013
0.08652,6.214916606665398e-06,0.0011
0.09804,7.058890395784365e-06,0.0006
0.1111,7.611258644239389e-06,0.0006
0.1168,8.053165776723504e-06,0.0009
0.1228,8.13104253232371e-06,0.0009
0.1291,8.513883627756646e-06,0.0009
0.1357,8.877045511929034e-06,0.0009
0.1426,6.815218685566678e-06,0.001
0.15,1.0301612969433293e-05,0.0008
0.1576,9.483563105124907e-06,0.0008
0.1657,8.796488865197139e-06,0.0009
0.1742,9.118455243277774e-06,0.0009
0.1832,1.075713320663622e-05,0.0008
0.1925,1.2685059708489175e-05,0.0007
0.2024,1.2845598777460472e-05,0.0007
0.2128,9.25061697187754e-06,0.0009
0.2237,1.6331575415453194e-05,0.0006
0.2352,1.4638478210916928e-05,0.0007
0.2472,2.0534746816455394e-05,0.0006
0.2732,2.3164616975022233e-05,0.0004
0.2872,2.60215619780081e-05,0.0005
0.2945,1.8926886840513367e-05,0.0009
0.2972,2.846495539384141e-05,0.0011
0.2985,3.1862338611106894e-05,0.0015
0.302,2.6964975578733166e-05,0.001
0.3337,2.3496882674553823e-05,0.0004
0.3688,1.9705614453071755e-05,0.0004
0.3877,2.0642749929446592e-05,0.0006
0.4076,2.12338734784671e-05,0.0006
0.4505,2.2099338045461635e-05,0.0004
0.4979,2.3204345239637354e-05,0.0004
0.5234,2.3750100294083868e-05,0.0005
0.5502,2.3876229193509166e-05,0.0005
0.5784,2.3845315221329663e-05,0.0005
0.6081,2.3693089993944786e-05,0.0005
0.6393,2.3372879422796035e-05,0.0005
0.6721,2.2826992108530747e-05,0.0005
0.7065,2.2031384901585108e-05,0.0006
0.7427,2.092897908517079e-05,0.0006
0.7808,1.953073573558025e-05,0.0006
0.8209,1.791412615503664e-05,0.0006
0.8629,1.603951775214865e-05,0.0006
0.9072,1.4079982855868846e-05,0.0008
0.9617,1.1992073569397114e-05,0.0007
1.003,1.0184826719484755e-05,0.0009
1.108,7.878841864294024e-06,0.0006
1.165,5.4892206077358e-06,0.0011
1.225,4.269216198906342e-06,0.0012
1.287,3.6238772883416253e-06,0.0013
1.353,3.231246571077133e-06,0.0014
1.423,2.8861504434332962e-06,0.0015
1.496,2.6291108107446305e-06,0.0016
1.572,2.4129726705345157e-06,0.0016
1.653,2.2301160681176667e-06,0.0017
1.738,2.057207827451462e-06,0.0017
1.827,1.8993897497562712e-06,0.0018
1.921,1.7335329639623781e-06,0.0019
2.019,1.5671494110066833e-06,0.002
2.122,1.3473883685971196e-06,0.0021
2.231,1.083197283335154e-06,0.0024
2.307,8.9039773255004e-07,0.0031
2.346,8.042939722867814e-07,0.0046
2.365,7.704649956537478e-07,0.0068
2.385,7.467430870668676e-07,0.0067
2.466,6.939938140862289e-07,0.0035
2.592,6.107937011789946e-07,0.003
2.725,5.291549671771388e-07,0.0032
2.865,4.589088976299855e-07,0.0035
3.012,4.114900582352015e-07,0.0036
3.166,3.8065241450530066e-07,0.0038
3.329,3.475051490135307e-07,0.0039
3.679,3.0345801879039493e-07,0.0029
4.066,2.472946592472693e-07,0.0031
4.493,2.112307905946293e-07,0.0036
4.724,1.9415892923968644e-07,0.0049
4.966,1.898508798381732e-07,0.0048
5.22,1.9354760535889784e-07,0.0047
5.488,1.9938506360817558e-07,0.0046
5.77,2.058206448916631e-07,0.0045
6.065,2.1291969149860422e-07,0.0045
6.376,2.2366337515015254e-07,0.0044
6.592,2.3515292981579469e-07,0.005
6.703,2.43247932287825e-07,0.007
7.047,2.5488539174706843e-07,0.004
7.408,2.684247764643856e-07,0.004
7.788,2.81027410334372e-07,0.0038
8.187,3.072026088259284e-07,0.0036
8.607,3.4671379277143097e-07,0.0034
9.048,3.4292806965476393e-07,0.0034
9.512,3.449221142671181e-07,0.0033
10.0,4.422144142746735e-07,0.003
10.51,8.054546657330485e-07,0.0022
11.05,7.91715217729495e-07,0.0021
11.62,8.714499497146252e-07,0.0021
12.21,1.028878143281151e-06,0.0019
12.52,1.109493217913782e-06,0.0025
12.84,1.1519881787654027e-06,0.0025
13.5,1.2463873078876518e-06,0.0017
13.84,1.2715299066713768e-06,0.0023
14.19,3.573839457662111e-07,0.004
14.55,0.0,0.0
14.92,0.0,0.0
15.68,0.0,0.0
16.49,0.0,0.0
16.9,0.0,0.0
17.33,0.0,0.0
19.64,0.0,0.0
