Energy,Value,Error
1e-07,1.5081889237881527e-11,0.1303
4.14e-07,3.4156291878553713e-10,0.0564
5.316e-07,8.863941089517793e-10,0.1081
6.826e-07,9.369656267285324e-10,0.0831
8.764e-07,1.301990117520224e-09,0.0823
1.125e-06,1.5677668210506149e-09,0.0657
1.445e-06,2.105899498679566e-09,0.0559
1.855e-06,2.6641777691071487e-09,0.0621
2.382e-06,3.5030864631796878e-09,0.0479
3.059e-06,4.40671837507868e-09,0.0452
3.928e-06,5.3094211081369955e-09,0.0367
5.043e-06,6.976606833109905e-09,0.0319
6.476e-06,9.130238780516379e-09,0.0289
8.315e-06,1.1598144924028438e-08,0.0268
1.068e-05,1.4586811944159847e-08,0.0251
1.371e-05,1.8249895713744644e-08,0.0231
1.76e-05,2.2788174429249978e-08,0.0189
2.26e-05,2.8308504585616527e-08,0.0174
2.902e-05,3.6131572270720516e-08,0.0152
3.727e-05,4.528194664741158e-08,0.0134
4.785e-05,5.550050645969897e-08,0.0123
6.144e-05,6.875115803783144e-08,0.0108
7.889e-05,8.526145490370169e-08,0.01
0.0001013,1.052625541202233e-07,0.009
0.0001301,1.2995081606940113e-07,0.008
0.000167,1.5927282633145869e-07,0.0071
0.0002145,1.9760708317704157e-07,0.0064
0.0002754,2.424913945802343e-07,0.006
0.0003536,2.9876561899919665e-07,0.0053
0.000454,3.7098018748088273e-07,0.0049
0.0005829,4.4757400399280805e-07,0.0044
0.0007485,5.404838854379405e-07,0.004
0.0009611,6.462852371256987e-07,0.0036
0.001234,7.748729661929473e-07,0.0033
0.001585,9.370754923593815e-07,0.003
0.002035,1.1176320370908815e-06,0.0027
0.002249,1.264048249291011e-06,0.004
0.002485,1.3573814046690834e-06,0.0039
0.002613,1.422805613764947e-06,0.0055
0.002747,1.4816712026921734e-06,0.0054
0.003035,1.5508913865026583e-06,0.0038
0.003355,1.660888123289732e-06,0.0035
0.003707,1.7723158785156372e-06,0.0034
0.004307,1.9187210309272684e-06,0.0027
0.005531,2.1736595640922295e-06,0.0019
0.007102,2.54159666651671e-06,0.0018
0.009119,2.9365432931180035e-06,0.0017
0.01059,3.2603809109897327e-06,0.0021
0.01171,3.492116391182875e-06,0.0024
0.01503,3.7959492026040047e-06,0.0015
0.0193,4.259350705591904e-06,0.0014
0.02187,4.612443743930806e-06,0.0019
0.02358,4.782868788656735e-06,0.0023
0.02418,4.86628896954242e-06,0.004
0.02479,4.905777590512011e-06,0.004
0.02606,5.0005178366155775e-06,0.0028
0.027,5.050106214624219e-06,0.0033
0.0285,5.117407432811993e-06,0.0027
0.03183,5.260351928001179e-06,0.0018
0.03431,5.396906151014598e-06,0.0022
0.04087,5.596228451863064e-06,0.0014
0.04631,5.847483274832409e-06,0.0016
0.05248,6.174893390631166e-06,0.0016
0.05656,6.531785811673856e-06,0.002
0.06738,7.025858800965378e-06,0.0012
0.07202,7.537042198475009e-06,0.002
0.0795,7.894342948317378e-06,0.0016
0.0825,8.16597234053573e-06,0.0025
0.08652,8.39789006448178e-06,0.0022
0.09804,8.92352302863988e-06,0.0014
0.1111,9.364829137481531e-06,0.0013
0.1168,1.0558143866108111e-05,0.002
0.1228,1.1434116365829906e-05,0.0019
0.1291,1.2439286235964849e-05,0.0018
0.1357,1.3512031236540625e-05,0.0017
0.1426,1.4590819179078921e-05,0.0016
0.15,1.5497041322111295e-05,0.0015
0.1576,1.6083376357862594e-05,0.0015
0.1657,1.6101679474534682e-05,0.0015
0.1742,1.5561995433089315e-05,0.0015
0.1832,1.448174422651339e-05,0.0015
0.1925,1.1969739753488428e-05,0.0017
0.2024,9.243369879864351e-06,0.0019
0.2128,6.3172039187029165e-06,0.0024
0.2237,3.877296048470938e-06,0.0033
0.2352,1.76795502863433e-06,0.0057
0.2472,7.206352925736013e-07,0.0093
0.2732,3.214164225571081e-07,0.0112
0.2872,5.767657341362884e-07,0.011
0.2945,9.175198313680121e-07,0.0122
0.2972,1.1280134336647923e-06,0.0164
0.2985,1.3230315616213416e-06,0.0246
0.302,1.3759958540160841e-06,0.0131
0.3337,2.3143129534409072e-06,0.0034
0.3688,3.902197602880533e-06,0.0024
0.3877,4.860921706417786e-06,0.0032
0.4076,5.4559577340188864e-06,0.0028
0.4505,6.070163097956048e-06,0.002
0.4979,6.919680710770131e-06,0.0017
0.5234,7.454461021458617e-06,0.0023
0.5502,7.64650918752606e-06,0.0022
0.5784,7.860263211101223e-06,0.0022
0.6081,7.91182251792067e-06,0.0022
0.6393,7.950496439786942e-06,0.0022
0.6721,7.87979029408066e-06,0.0022
0.7065,7.803820562528513e-06,0.0022
0.7427,7.5256069975532805e-06,0.0022
0.7808,7.168971635286064e-06,0.0022
0.8209,6.677313914862769e-06,0.0023
0.8629,6.12898317008423e-06,0.0024
0.9072,5.604652206255553e-06,0.0026
0.9617,5.063505836256067e-06,0.0025
1.003,4.607660565785385e-06,0.0032
1.108,3.974012762836751e-06,0.0024
1.165,3.870446332771805e-06,0.0034
1.225,3.827358226370407e-06,0.0034
1.287,3.847926486112917e-06,0.0034
1.353,3.865634357371305e-06,0.0034
1.423,3.912021840042766e-06,0.0033
1.496,3.951122106363948e-06,0.0033
1.572,4.045521060404818e-06,0.0032
1.653,4.123350223403693e-06,0.0032
1.738,4.1804265890201675e-06,0.0031
1.827,4.1917691177624854e-06,0.0032
1.921,4.1177098477109955e-06,0.0031
2.019,3.962018553040989e-06,0.0032
2.122,3.8172747934043034e-06,0.0032
2.231,3.6388064504560935e-06,0.0034
2.307,3.4980230769519842e-06,0.0041
2.346,3.3816078653103317e-06,0.0059
2.365,3.3346756665711044e-06,0.0089
2.385,3.292846790679982e-06,0.0086
2.466,3.274030838843693e-06,0.0044
2.592,3.1197390031340236e-06,0.0036
2.725,2.981655202879907e-06,0.0037
2.865,2.8638767112755836e-06,0.0038
3.012,2.7859763385801774e-06,0.004
3.166,2.6601609748275457e-06,0.004
3.329,2.5420593846059096e-06,0.004
3.679,2.3429258963188215e-06,0.003
4.066,2.0568245699260328e-06,0.0032
4.493,1.8469688588191465e-06,0.0039
4.724,1.8896039317689967e-06,0.0047
4.966,1.9987534225053285e-06,0.0046
5.22,2.1925029625934716e-06,0.0045
5.488,2.4798823254399416e-06,0.004
5.77,2.604444497972676e-06,0.0039
6.065,2.6200270721664126e-06,0.0038
6.376,2.7817439872916305e-06,0.0037
6.592,2.9067304825367765e-06,0.0043
6.703,2.9371625643968724e-06,0.0059
7.047,3.072263932742823e-06,0.0034
7.408,3.265930526446903e-06,0.0045
7.788,3.4471336309032897e-06,0.0032
8.187,3.6460657929766554e-06,0.0032
8.607,3.953642612056869e-06,0.0033
9.048,4.319792170772229e-06,0.0028
9.512,4.848949423210121e-06,0.0025
10.0,5.546048814270705e-06,0.0023
10.51,6.3616946522707804e-06,0.002
11.05,6.444033962378996e-06,0.002
11.62,6.453981597214389e-06,0.0019
12.21,6.199298823741831e-06,0.0019
12.52,5.746033599190038e-06,0.0028
12.84,5.2334714632312225e-06,0.0029
13.5,4.181976314972239e-06,0.0022
13.84,2.664881376818537e-06,0.004
14.19,7.944009867472382e-07,0.0072
14.55,0.0,0.0
14.92,0.0,0.0
15.68,0.0,0.0
16.49,0.0,0.0
16.9,0.0,0.0
17.33,0.0,0.0
19.64,0.0,0.0
