Energy,Value,Error
1e-07,5.27122e-10,0.0394
4.14e-07,1.71737e-09,0.0267
5.316e-07,5.54258e-10,0.0403
6.826e-07,6.19452e-10,0.0401
8.764e-07,8.22253e-10,0.0324
1.125e-06,9.89379e-10,0.0325
1.445e-06,1.22627e-09,0.0286
1.855e-06,1.39627e-09,0.0263
2.382e-06,1.73457e-09,0.0234
3.059e-06,2.03244e-09,0.02
3.928e-06,2.49981e-09,0.0191
5.043e-06,3.02838e-09,0.0199
6.476e-06,3.59158e-09,0.0171
8.315e-06,4.23534e-09,0.0151
1.068e-05,5.29262e-09,0.0163
1.371e-05,5.95055e-09,0.0131
1.76e-05,7.15385e-09,0.0114
2.26e-05,8.52956e-09,0.0101
2.902e-05,1.01227e-08,0.0096
3.727e-05,1.17952e-08,0.0092
4.785e-05,1.38007e-08,0.008
6.144e-05,1.64119e-08,0.0075
7.889e-05,1.91622e-08,0.0068
0.0001013,2.21353e-08,0.0059
0.0001301,2.57794e-08,0.0061
0.000167,2.93368e-08,0.0052
0.0002145,3.3737e-08,0.0045
0.0002754,3.88509e-08,0.0043
0.0003536,5.36935e-08,0.0036
0.000454,7.33466e-08,0.003
0.0005829,7.81781e-08,0.0029
0.0007485,7.85243e-08,0.0027
0.0009611,7.45896e-08,0.0027
0.001234,2.02866e-08,0.0053
0.001585,1.75999e-08,0.0061
0.002035,3.0378e-08,0.0046
0.002249,1.70264e-08,0.006
0.002485,2.02587e-08,0.0056
0.002613,1.15956e-08,0.0132
0.002747,1.26366e-08,0.0071
0.003035,2.86464e-08,0.0049
0.003355,3.45501e-08,0.0044
0.003707,4.07644e-08,0.0038
0.004307,7.69188e-08,0.003
0.005531,1.83675e-07,0.0019
0.007102,2.64001e-07,0.0015
0.009119,3.6267e-07,0.0013
0.01059,2.73565e-07,0.0015
0.01171,2.07981e-07,0.0018
0.01503,6.14204e-07,0.0011
0.0193,7.79674e-07,0.001
0.02187,4.5977e-07,0.0014
0.02358,2.94068e-07,0.0018
0.02418,1.0124e-07,0.0031
0.02479,1.01522e-07,0.003
0.02606,2.09721e-07,0.0023
0.027,1.52944e-07,0.0026
0.0285,2.38338e-07,0.0021
0.03183,5.14494e-07,0.0014
0.03431,3.6913e-07,0.0017
0.04087,9.32065e-07,0.0011
0.04631,7.32718e-07,0.0013
0.05248,7.89622e-07,0.0012
0.05656,4.96118e-07,0.0016
0.06738,1.22408e-06,0.001
0.07202,4.90422e-07,0.0016
0.0795,7.46959e-07,0.0013
0.0825,2.85946e-07,0.0021
0.08652,3.72874e-07,0.0019
0.09804,1.00805e-06,0.0012
0.1111,1.03676e-06,0.0011
0.1168,4.19384e-07,0.0018
0.1228,4.24942e-07,0.0019
0.1291,4.25078e-07,0.0018
0.1357,4.25185e-07,0.0018
0.1426,4.27135e-07,0.0018
0.15,4.35101e-07,0.0018
0.1576,4.26489e-07,0.0019
0.1657,4.32701e-07,0.0018
0.1742,4.33386e-07,0.0019
0.1832,4.35232e-07,0.0018
0.1925,4.23591e-07,0.0018
0.2024,4.29513e-07,0.0018
0.2128,4.26311e-07,0.0018
0.2237,4.19489e-07,0.0019
0.2352,4.15765e-07,0.0019
0.2472,4.06687e-07,0.0019
0.2732,7.99546e-07,0.0014
0.2872,3.86191e-07,0.0019
0.2945,1.91523e-07,0.0028
0.2972,6.83476e-08,0.0045
0.2985,3.29999e-08,0.0067
0.302,8.68168e-08,0.0044
0.3337,7.2201e-07,0.0015
0.3688,6.6835e-07,0.0015
0.3877,3.12436e-07,0.0022
0.4076,2.98351e-07,0.0022
0.4505,5.43961e-07,0.0017
0.4979,4.59307e-07,0.0018
0.5234,1.97034e-07,0.0027
0.5502,1.82148e-07,0.0029
0.5784,1.69912e-07,0.0031
0.6081,1.56194e-07,0.003
0.6393,1.42271e-07,0.0032
0.6721,1.27216e-07,0.0033
0.7065,1.16395e-07,0.0035
0.7427,1.11612e-07,0.0036
0.7808,1.07322e-07,0.0037
0.8209,1.046e-07,0.0037
0.8629,1.00635e-07,0.0037
0.9072,1.0035e-07,0.0037
0.9617,1.12841e-07,0.0035
1.003,7.73667e-08,0.0041
1.108,1.81813e-07,0.0027
1.165,8.93442e-08,0.0039
1.225,8.67511e-08,0.0038
1.287,8.24752e-08,0.0039
1.353,8.13194e-08,0.004
1.423,8.05836e-08,0.0039
1.496,7.77301e-08,0.004
1.572,7.55261e-08,0.004
1.653,7.48327e-08,0.0041
1.738,7.18331e-08,0.0041
1.827,6.78834e-08,0.0042
1.921,6.50734e-08,0.0044
2.019,6.14974e-08,0.0045
2.122,5.91121e-08,0.0047
2.231,5.58377e-08,0.0044
2.307,3.59525e-08,0.0058
2.346,1.74245e-08,0.0081
2.365,8.41465e-09,0.0125
2.385,8.49761e-09,0.0127
2.466,3.24214e-08,0.0058
2.592,4.63128e-08,0.0049
2.725,4.31968e-08,0.0051
2.865,3.9634e-08,0.0073
3.012,3.6376e-08,0.0055
3.166,3.34054e-08,0.0059
3.329,3.11889e-08,0.0059
3.679,5.65507e-08,0.0043
4.066,5.05544e-08,0.0045
4.493,4.62507e-08,0.0048
4.724,2.24328e-08,0.0068
4.966,2.13426e-08,0.0068
5.22,2.09275e-08,0.0082
5.488,2.0594e-08,0.0069
5.77,2.02493e-08,0.0068
6.065,2.00539e-08,0.0071
6.376,1.96433e-08,0.0068
6.592,1.32071e-08,0.0083
6.703,6.50843e-09,0.0118
7.047,1.95783e-08,0.0068
7.408,1.94641e-08,0.0064
7.788,1.98514e-08,0.0068
8.187,2.01455e-08,0.0062
8.607,2.05375e-08,0.006
9.048,2.13419e-08,0.0059
9.512,2.32334e-08,0.0055
10.0,2.99172e-08,0.005
10.51,5.43228e-08,0.0035
11.05,5.8083e-08,0.0034
11.62,6.26298e-08,0.0033
12.21,6.53282e-08,0.0032
12.52,3.46244e-08,0.0044
12.84,3.64714e-08,0.0042
13.5,7.41689e-08,0.003
13.84,3.50585e-08,0.0042
14.19,1.14283e-08,0.0071
14.55,0.0,0.0
14.92,0.0,0.0
15.68,0.0,0.0
16.49,0.0,0.0
16.9,0.0,0.0
17.33,0.0,0.0
19.64,0.0,0.0
