Energy,Value,Error
1e-07,0.0,0.0
4.14e-07,2.12632e-12,0.2646
5.316e-07,3.75443e-12,0.1506
6.826e-07,1.13748e-11,0.1334
8.764e-07,2.36345e-11,0.0706
1.125e-06,4.17803e-11,0.0532
1.445e-06,5.86887e-11,0.045
1.855e-06,6.70981e-11,0.042
2.382e-06,9.70516e-11,0.0381
3.059e-06,1.18434e-10,0.0351
3.928e-06,1.53356e-10,0.0281
5.043e-06,2.04227e-10,0.0244
6.476e-06,2.55047e-10,0.0238
8.315e-06,3.12496e-10,0.0199
1.068e-05,4.20913e-10,0.0179
1.371e-05,5.33226e-10,0.0157
1.76e-05,6.83841e-10,0.0141
2.26e-05,8.80184e-10,0.0121
2.902e-05,1.12775e-09,0.0111
3.727e-05,1.46967e-09,0.0094
4.785e-05,1.88722e-09,0.0092
6.144e-05,2.39189e-09,0.0074
7.889e-05,3.10358e-09,0.0065
0.0001013,3.97405e-09,0.0058
0.0001301,5.12603e-09,0.0051
0.000167,6.53574e-09,0.0047
0.0002145,8.47531e-09,0.004
0.0002754,1.08154e-08,0.0037
0.0003536,1.39296e-08,0.0032
0.000454,1.78792e-08,0.0028
0.0005829,2.28957e-08,0.0024
0.0007485,2.94467e-08,0.0021
0.0009611,3.7839e-08,0.0019
0.001234,4.86993e-08,0.0017
0.001585,6.25357e-08,0.0015
0.002035,7.97058e-08,0.0013
0.002249,3.79442e-08,0.0019
0.002485,4.16938e-08,0.0018
0.002613,2.25514e-08,0.0025
0.002747,2.35475e-08,0.0024
0.003035,5.02096e-08,0.0019
0.003355,5.52951e-08,0.0016
0.003707,6.0057e-08,0.0015
0.004307,1e-07,0.0012
0.005531,1.91787e-07,0.0009
0.007102,2.46699e-07,0.0007
0.009119,3.32703e-07,0.0006
0.01059,2.43463e-07,0.0007
0.01171,1.8654e-07,0.0008
0.01503,5.61444e-07,0.0005
0.0193,7.30509e-07,0.0004
0.02187,4.43568e-07,0.0005
0.02358,2.97244e-07,0.0007
0.02418,1.04799e-07,0.0011
0.02479,1.07311e-07,0.0011
0.02606,2.23333e-07,0.0008
0.027,1.65352e-07,0.0009
0.0285,2.63725e-07,0.0007
0.03183,5.86093e-07,0.0005
0.03431,4.37083e-07,0.0005
0.04087,1.15993e-06,0.0003
0.04631,9.5486e-07,0.0004
0.05248,1.06488e-06,0.0003
0.05656,6.83041e-07,0.0004
0.06738,1.69711e-06,0.0003
0.07202,6.66787e-07,0.0004
0.0795,9.86471e-07,0.0004
0.0825,3.66851e-07,0.0006
0.08652,4.64903e-07,0.0005
0.09804,1.20766e-06,0.0003
0.1111,7.84477e-07,0.0004
0.1168,3.0018e-07,0.0007
0.1228,3.11661e-07,0.0007
0.1291,3.23311e-07,0.0007
0.1357,3.34274e-07,0.0007
0.1426,3.45329e-07,0.0007
0.15,3.64948e-07,0.0006
0.1576,3.70878e-07,0.0006
0.1657,3.90843e-07,0.0006
0.1742,4.05518e-07,0.0006
0.1832,4.24167e-07,0.0006
0.1925,4.33505e-07,0.0006
0.2024,4.55734e-07,0.0006
0.2128,4.72622e-07,0.0006
0.2237,4.8981e-07,0.0006
0.2352,5.10262e-07,0.0005
0.2472,5.25999e-07,0.0005
0.2732,1.11919e-06,0.0004
0.2872,5.91214e-07,0.0005
0.2945,3.05382e-07,0.0007
0.2972,1.12364e-07,0.0011
0.2985,5.39837e-08,0.0017
0.302,1.45177e-07,0.001
0.3337,1.29486e-06,0.0003
0.3688,1.39463e-06,0.0003
0.3877,7.34817e-07,0.0004
0.4076,7.61674e-07,0.0004
0.4505,1.59916e-06,0.0003
0.4979,1.70164e-06,0.0003
0.5234,8.84151e-07,0.0004
0.5502,9.05332e-07,0.0004
0.5784,9.25388e-07,0.0004
0.6081,9.42289e-07,0.0004
0.6393,9.52168e-07,0.0004
0.6721,9.55333e-07,0.0004
0.7065,9.44103e-07,0.0004
0.7427,9.16508e-07,0.0004
0.7808,8.68385e-07,0.0004
0.8209,7.89575e-07,0.0004
0.8629,6.79639e-07,0.0004
0.9072,5.77425e-07,0.0005
0.9617,5.62698e-07,0.0005
1.003,3.3343e-07,0.0006
1.108,7.02114e-07,0.0004
1.165,3.37335e-07,0.0006
1.225,3.28558e-07,0.0006
1.287,3.15766e-07,0.0006
1.353,3.11631e-07,0.0006
1.423,3.02445e-07,0.0007
1.496,2.874e-07,0.0007
1.572,2.75605e-07,0.0007
1.653,2.68737e-07,0.0007
1.738,2.55153e-07,0.0007
1.827,2.40908e-07,0.0007
1.921,2.27627e-07,0.0007
2.019,2.10109e-07,0.0008
2.122,1.98375e-07,0.0008
2.231,1.88979e-07,0.0008
2.307,1.20108e-07,0.001
2.346,5.8289e-08,0.0014
2.365,2.76047e-08,0.002
2.385,2.86338e-08,0.002
2.466,1.10032e-07,0.001
2.592,1.55e-07,0.0009
2.725,1.45675e-07,0.0009
2.865,1.36489e-07,0.0009
3.012,1.27461e-07,0.0009
3.166,1.19447e-07,0.0009
3.329,1.1377e-07,0.001
3.679,2.11751e-07,0.0007
4.066,1.99776e-07,0.0007
4.493,1.91353e-07,0.0007
4.724,9.19106e-08,0.001
4.966,8.87237e-08,0.001
5.22,8.65474e-08,0.001
5.488,8.62043e-08,0.001
5.77,8.70552e-08,0.001
6.065,8.85416e-08,0.001
6.376,9.1264e-08,0.001
6.592,6.23301e-08,0.0012
6.703,3.15661e-08,0.0017
7.047,9.72652e-08,0.0009
7.408,1.01315e-07,0.0009
7.788,1.06503e-07,0.0009
8.187,1.12716e-07,0.0009
8.607,1.20112e-07,0.0008
9.048,1.27193e-07,0.0008
9.512,1.33978e-07,0.0008
10.0,1.75782e-07,0.0007
10.51,3.30236e-07,0.0005
11.05,3.45252e-07,0.0005
11.62,3.67476e-07,0.0004
12.21,3.88462e-07,0.0004
12.52,2.01977e-07,0.0006
12.84,2.05416e-07,0.0006
13.5,4.10469e-07,0.0004
13.84,1.88908e-07,0.0006
14.19,6.37531e-08,0.001
14.55,0.0,0.0
14.92,0.0,0.0
15.68,0.0,0.0
16.49,0.0,0.0
16.9,0.0,0.0
17.33,0.0,0.0
19.64,0.0,0.0
