Energy,Value,Error
1e-07,1.37372845689436e-12,0.0695
4.14e-07,4.678439998839176e-11,0.0268
5.316e-07,1.1799283410420598e-10,0.039
6.826e-07,1.7788019922744737e-10,0.0345
8.764e-07,2.2734299588500022e-10,0.0296
1.125e-06,3.4147071104450254e-10,0.024
1.445e-06,4.3973008907442473e-10,0.0208
1.855e-06,5.614644769667059e-10,0.0178
2.382e-06,7.258660596487717e-10,0.0235
3.059e-06,9.353677804295533e-10,0.014
3.928e-06,1.1557243343748994e-09,0.0126
5.043e-06,1.5563005912053815e-09,0.0125
6.476e-06,1.9573902247373326e-09,0.01
8.315e-06,2.4521232031165045e-09,0.0084
1.068e-05,3.189786707430861e-09,0.0077
1.371e-05,4.108584868832722e-09,0.0067
1.76e-05,5.186821158971415e-09,0.006
2.26e-05,6.752462383310482e-09,0.0053
2.902e-05,8.616261964615693e-09,0.0047
3.727e-05,1.1021869695493559e-08,0.0041
4.785e-05,1.407558090508859e-08,0.0037
6.144e-05,1.8014242663649447e-08,0.0032
7.889e-05,2.285828453144346e-08,0.0029
0.0001013,2.934289183903938e-08,0.0025
0.0001301,3.7641970644522395e-08,0.0023
0.000167,4.807192710231191e-08,0.002
0.0002145,6.122742666793305e-08,0.0018
0.0002754,7.808259557967686e-08,0.0015
0.0003536,9.953519390232228e-08,0.0014
0.000454,1.265669996848854e-07,0.0012
0.0005829,1.612357970452756e-07,0.0011
0.0007485,2.0462092602088726e-07,0.001
0.0009611,2.5966886132523984e-07,0.0008
0.001234,3.290335390431093e-07,0.0007
0.001585,4.1623342417424515e-07,0.0007
0.002035,5.251660945690714e-07,0.0006
0.002249,6.15462444311102e-07,0.0009
0.002485,6.751912480269392e-07,0.0008
0.002613,7.231426659432162e-07,0.0011
0.002747,7.553185829262692e-07,0.0011
0.003035,8.09841185834989e-07,0.0008
0.003355,8.866360066021846e-07,0.0007
0.003707,9.685063906048178e-07,0.0007
0.004307,1.081545297834977e-06,0.0005
0.005531,1.2920395150295703e-06,0.0004
0.007102,1.6015780082905237e-06,0.0003
0.009119,1.9733125460734117e-06,0.0003
0.01059,2.3164157492669312e-06,0.0004
0.01171,2.5590597509908715e-06,0.0004
0.01503,2.9339272981806337e-06,0.0002
0.0193,3.5193111153534305e-06,0.0002
0.02187,3.9968086332802585e-06,0.0003
0.02358,4.264478598592837e-06,0.0004
0.02418,4.405548610512426e-06,0.0006
0.02479,4.473780174216811e-06,0.0006
0.02606,4.582773881605796e-06,0.0004
0.027,4.7097393505792085e-06,0.0005
0.0285,4.844376941265063e-06,0.0004
0.03183,5.102305001095539e-06,0.0003
0.03431,5.40383693238097e-06,0.0003
0.04087,5.800715845373623e-06,0.0002
0.04631,6.232801573972808e-06,0.0002
0.05248,6.591605949570073e-06,0.0002
0.05656,6.8564824852830354e-06,0.0003
0.06738,7.118063021844007e-06,0.0002
0.07202,7.369373514568018e-06,0.0003
0.0795,7.563111775660704e-06,0.0002
0.0825,7.73763931415054e-06,0.0004
0.08652,7.855509647777065e-06,0.0003
0.09804,8.114962754214869e-06,0.0002
0.1111,6.140499401855664e-06,0.0002
0.1168,5.973632222650799e-06,0.0004
0.1228,6.128584962623713e-06,0.0004
0.1291,6.2749196401552535e-06,0.0004
0.1357,6.418345204290206e-06,0.0004
0.1426,6.5449600830788056e-06,0.0004
0.15,6.663156727194278e-06,0.0004
0.1576,6.759833863157534e-06,0.0004
0.1657,6.840254804060184e-06,0.0004
0.1742,6.909066123503496e-06,0.0004
0.1832,6.964134258905741e-06,0.0004
0.1925,7.004242716827011e-06,0.0004
0.2024,7.040150007711453e-06,0.0003
0.2128,7.057781747427158e-06,0.0003
0.2237,7.05109236936968e-06,0.0003
0.2352,7.044654932823213e-06,0.0003
0.2472,7.0318606308490625e-06,0.0003
0.2732,6.974943456231319e-06,0.0002
0.2872,6.889704884737198e-06,0.0003
0.2945,6.832982720641271e-06,0.0005
0.2972,6.803834374199895e-06,0.0008
0.2985,6.8057242267379295e-06,0.0013
0.302,6.7819358874609245e-06,0.0007
0.3337,6.621996298880152e-06,0.0002
0.3688,6.255162754681381e-06,0.0003
0.3877,5.779557793549159e-06,0.0004
0.4076,5.433082648039825e-06,0.0004
0.4505,4.871553408448838e-06,0.0003
0.4979,4.130289287311876e-06,0.0003
0.5234,3.581275028580779e-06,0.0005
0.5502,3.2274402640083744e-06,0.0005
0.5784,2.8729295447385133e-06,0.0005
0.6081,2.5313901848217007e-06,0.0006
0.6393,2.1955856761650845e-06,0.0006
0.6721,1.8703879025688346e-06,0.0007
0.7065,1.5637551336436347e-06,0.0008
0.7427,1.2872602931663314e-06,0.0009
0.7808,1.0496245526470482e-06,0.001
0.8209,8.66404517550851e-07,0.0012
0.8629,7.28240745549255e-07,0.0013
0.9072,6.359424234388139e-07,0.0016
0.9617,5.759122312212451e-07,0.0015
1.003,5.479611526764591e-07,0.0018
1.108,5.529851661115248e-07,0.0012
1.165,5.972231514482645e-07,0.0016
1.225,6.523627745487157e-07,0.0015
1.287,7.259582883634837e-07,0.0014
1.353,8.207289506538585e-07,0.0013
1.423,9.306529745437869e-07,0.0012
1.496,1.0595359743501753e-06,0.0011
1.572,1.2043189945452208e-06,0.0011
1.653,1.355849187883037e-06,0.001
1.738,1.5165224369661165e-06,0.0009
1.827,1.6859386780849813e-06,0.0009
1.921,1.8568063394495225e-06,0.0008
2.019,2.024280043628974e-06,0.0008
2.122,2.1952420098137005e-06,0.0007
2.231,2.361847330261583e-06,0.0007
2.307,2.4941740109350665e-06,0.0008
2.346,2.5803740636664573e-06,0.0011
2.365,2.622041601565354e-06,0.0016
2.385,2.6364600446456792e-06,0.0016
2.466,2.7083460259527125e-06,0.0008
2.592,2.8343221359392054e-06,0.0006
2.725,2.9853923141209327e-06,0.0006
2.865,3.1343761341303834e-06,0.0006
3.012,3.280320808302204e-06,0.0006
3.166,3.4259740074080557e-06,0.0006
3.329,3.568093743918006e-06,0.0005
3.679,3.7933552751696302e-06,0.0004
4.066,4.105320700525267e-06,0.0003
4.493,4.4424087294292244e-06,0.0003
4.724,4.720190163014083e-06,0.0004
4.966,4.9239584495685075e-06,0.0004
5.22,5.14536951296589e-06,0.0004
5.488,5.392069784231652e-06,0.0004
5.77,5.6805085047427086e-06,0.0004
6.065,6.008026654298827e-06,0.0004
6.376,6.387062571992546e-06,0.0004
6.592,6.73697331629235e-06,0.0005
6.703,6.9611481588775496e-06,0.0006
7.047,7.2946711710431796e-06,0.0003
7.408,7.815586467990669e-06,0.0003
7.788,8.400176768699351e-06,0.0003
8.187,9.00368297359342e-06,0.0003
8.607,9.636126863189798e-06,0.0003
9.048,1.028121783861547e-05,0.0003
9.512,1.0923343449680605e-05,0.0002
10.0,1.1553112411552263e-05,0.0002
10.51,1.3793549363603126e-05,0.0002
11.05,1.3510542600765997e-05,0.0002
11.62,1.302130918598106e-05,0.0002
12.21,1.2300026219841601e-05,0.0002
12.52,1.1591540406976055e-05,0.0003
12.84,1.1015165327435077e-05,0.0003
13.5,9.989987472089024e-06,0.0002
13.84,8.775647356169914e-06,0.0003
14.19,3.72904951748773e-06,0.0005
14.55,0.0,0.0
14.92,0.0,0.0
15.68,0.0,0.0
16.49,0.0,0.0
16.9,0.0,0.0
17.33,0.0,0.0
19.64,0.0,0.0
