Energy,Value,Error
1e-07,0.0,0.0
4.14e-07,1.3225984169774205e-13,0.4185
5.316e-07,2.6781284054945673e-12,0.2647
6.826e-07,1.1082414937971883e-11,0.2105
8.764e-07,2.821887568875494e-11,0.094
1.125e-06,8.719035045408083e-11,0.0586
1.445e-06,1.3217389408381356e-10,0.0561
1.855e-06,1.7371488317343325e-10,0.0445
2.382e-06,2.171763480664554e-10,0.0386
3.059e-06,2.9374138186105226e-10,0.0354
3.928e-06,3.792329953632285e-10,0.0317
5.043e-06,5.123088583468991e-10,0.0263
6.476e-06,6.45424943585702e-10,0.023
8.315e-06,8.003942202534449e-10,0.0209
1.068e-05,1.0786110975670724e-09,0.0179
1.371e-05,1.4386913834644411e-09,0.0197
1.76e-05,1.896254701016779e-09,0.0149
2.26e-05,2.424133435722689e-09,0.013
2.902e-05,3.1608291702971687e-09,0.0116
3.727e-05,4.038633101342176e-09,0.0102
4.785e-05,5.1272917876566866e-09,0.0087
6.144e-05,6.72274969142789e-09,0.0077
7.889e-05,8.580226920657953e-09,0.0069
0.0001013,1.1256402145567978e-08,0.0062
0.0001301,1.4412091787976678e-08,0.0055
0.000167,1.8575121431824753e-08,0.0048
0.0002145,2.3968670699629698e-08,0.0042
0.0002754,3.070141715732345e-08,0.0037
0.0003536,3.9522169539901764e-08,0.0033
0.000454,5.0708422445116286e-08,0.0029
0.0005829,6.529169893303991e-08,0.0025
0.0007485,8.324230062794815e-08,0.0023
0.0009611,1.070792912870552e-07,0.002
0.001234,1.37675085151508e-07,0.0018
0.001585,1.760913505793661e-07,0.0016
0.002035,2.2527142577195413e-07,0.0014
0.002249,2.6725511548320957e-07,0.002
0.002485,2.949182154021547e-07,0.0019
0.002613,3.1668849691524934e-07,0.0026
0.002747,3.3096502308533243e-07,0.0025
0.003035,3.5679619057134274e-07,0.0017
0.003355,3.940489195299066e-07,0.0016
0.003707,4.337967275655627e-07,0.0016
0.004307,4.892024051195673e-07,0.0012
0.005531,5.936463684213328e-07,0.0008
0.007102,7.51732535395517e-07,0.0008
0.009119,9.481457643744651e-07,0.0007
0.01059,1.137886913193531e-06,0.0008
0.01171,1.2748050596143745e-06,0.0009
0.01503,1.4938521300771757e-06,0.0005
0.0193,1.8739775415847368e-06,0.0005
0.02187,2.2390796401694885e-06,0.0006
0.02358,2.48640263764979e-06,0.0007
0.02418,2.6254638862548885e-06,0.0012
0.02479,2.703582157927954e-06,0.0012
0.02606,2.834498116463523e-06,0.0008
0.027,3.037423622493372e-06,0.001
0.0285,3.1616568409439923e-06,0.0008
0.03183,2.133972863913734e-06,0.0006
0.03431,3.0206077889994428e-06,0.0006
0.04087,3.325507887158106e-06,0.0004
0.04631,3.629674370531901e-06,0.0004
0.05248,3.9145555637390265e-06,0.0004
0.05656,4.1710633529983476e-06,0.0005
0.06738,4.576899841208791e-06,0.0003
0.07202,6.156606072713444e-06,0.0004
0.0795,1.9201895111480957e-05,0.0002
0.0825,3.346159415627059e-05,0.0003
0.08652,2.5663074643988505e-05,0.0003
0.09804,3.784769284549068e-06,0.0004
0.1111,9.493972171987241e-08,0.004
0.1168,1.4664684983517844e-07,0.0055
0.1228,3.1772702067429367e-07,0.0036
0.1291,4.954219512666662e-07,0.0026
0.1357,7.043785581431787e-07,0.0021
0.1426,9.316260023003687e-07,0.0018
0.15,1.1596981348989204e-06,0.0016
0.1576,1.3977959147053463e-06,0.0014
0.1657,1.617442670421631e-06,0.0013
0.1742,1.8642146733884788e-06,0.0012
0.1832,2.1224873318281e-06,0.0011
0.1925,2.1137289667164484e-06,0.0011
0.2024,1.2882926954422125e-06,0.0015
0.2128,1.3953190388933748e-06,0.0015
0.2237,2.6689628985005957e-06,0.001
0.2352,3.07390647776256e-06,0.0009
0.2472,3.450015916342509e-06,0.0009
0.2732,3.2816499050615544e-06,0.0006
0.2872,2.7888106095530593e-06,0.001
0.2945,1.9634412044064603e-06,0.0017
0.2972,3.72900996404169e-06,0.0019
0.2985,3.94268001410479e-06,0.0029
0.302,4.124230190310801e-06,0.0016
0.3337,5.114372749133821e-06,0.0005
0.3688,1.3666645526127495e-05,0.0003
0.3877,1.1155012552624983e-05,0.0004
0.4076,3.422312644877802e-06,0.0009
0.4505,5.4110961478717725e-06,0.0005
0.4979,6.840663247474721e-06,0.0004
0.5234,7.709392592679088e-06,0.0006
0.5502,8.183558131156358e-06,0.0005
0.5784,8.635854155814859e-06,0.0005
0.6081,7.510094434375328e-06,0.0005
0.6393,9.253058046201825e-06,0.0005
0.6721,6.916412119803849e-06,0.0006
0.7065,2.0409061447132736e-05,0.0003
0.7427,3.661210495978907e-06,0.0008
0.7808,6.268515008032818e-06,0.0006
0.8209,6.2181693385959465e-06,0.0006
0.8629,7.271785683017328e-06,0.0005
0.9072,7.437841197864422e-06,0.0005
0.9617,4.899277817525149e-06,0.0006
1.003,4.180674760815369e-06,0.0007
1.108,4.876945922974787e-06,0.0004
1.165,4.342433507309364e-06,0.0006
1.225,5.381985422846206e-06,0.0006
1.287,7.549011832843999e-06,0.0004
1.353,4.89376008415336e-06,0.0006
1.423,4.757709555663917e-06,0.0006
1.496,4.9285233541057226e-06,0.0006
1.572,5.595088956336422e-06,0.0005
1.653,3.094811489538594e-06,0.0007
1.738,2.9227687224836787e-06,0.0007
1.827,2.7410555310616746e-06,0.0007
1.921,2.5502581930941124e-06,0.0007
2.019,2.3612815405518662e-06,0.0008
2.122,2.1769128202931553e-06,0.0008
2.231,1.997609334702381e-06,0.0008
2.307,1.8627345294353834e-06,0.001
2.346,1.774714050293466e-06,0.0015
2.365,1.7325848295127023e-06,0.0021
2.385,1.712412380373236e-06,0.0021
2.466,1.6637024221440186e-06,0.0011
2.592,1.6084704374215524e-06,0.0009
2.725,1.560659621811696e-06,0.0009
2.865,1.514583194800299e-06,0.0009
3.012,1.470682292032938e-06,0.0009
3.166,1.4331715517886484e-06,0.0009
3.329,1.3992451449144885e-06,0.0009
3.679,1.3616018578905532e-06,0.0006
4.066,1.347307526917293e-06,0.0006
4.493,1.3511192057434099e-06,0.0006
4.724,1.3568292816293947e-06,0.0009
4.966,1.3760461716321747e-06,0.0009
5.22,1.3871899367455558e-06,0.0009
5.488,1.4081974204983526e-06,0.0008
5.77,1.4289660006121479e-06,0.0008
6.065,1.4409236386816727e-06,0.0008
6.376,1.4612509864129635e-06,0.0008
6.592,1.4882285258905438e-06,0.001
6.703,1.514115599151314e-06,0.0014
7.047,1.5546386415439656e-06,0.0008
7.408,1.6296164839375037e-06,0.0008
7.788,1.7153826767554655e-06,0.0008
8.187,1.7327288713945615e-06,0.0008
8.607,1.7044654337037891e-06,0.0008
9.048,1.6865623295683544e-06,0.0008
9.512,1.7534345640842212e-06,0.0008
10.0,2.112093306774636e-06,0.0007
10.51,3.2544268613053127e-06,0.0005
11.05,3.379302208978426e-06,0.0005
11.62,3.4355903676944705e-06,0.0005
12.21,3.552750888256715e-06,0.0005
12.52,3.6967139965807737e-06,0.0007
12.84,3.753576076910948e-06,0.0007
13.5,3.6676358621683462e-06,0.0005
13.84,3.0633694764531757e-06,0.0008
14.19,1.0752950382109236e-06,0.0014
14.55,0.0,0.0
14.92,0.0,0.0
15.68,0.0,0.0
16.49,0.0,0.0
16.9,0.0,0.0
17.33,0.0,0.0
19.64,0.0,0.0
