Energy,Value,Error
1e-07,7.011423833638859e-13,0.1346
4.14e-07,2.171633101479634e-10,0.0166
5.316e-07,1.069543535392053e-09,0.0192
6.826e-07,1.702943365988356e-09,0.0148
8.764e-07,2.73489349371835e-09,0.0124
1.125e-06,4.1983342295227895e-09,0.0096
1.445e-06,6.1429026297504924e-09,0.0078
1.855e-06,8.688326478891596e-09,0.007
2.382e-06,1.197004948800603e-08,0.0058
3.059e-06,1.6379569879612842e-08,0.005
3.928e-06,2.148600239199617e-08,0.004
5.043e-06,2.7734618509066375e-08,0.0039
6.476e-06,3.564187341017524e-08,0.0038
8.315e-06,4.4429450493712706e-08,0.0033
1.068e-05,5.534618974652562e-08,0.003
1.371e-05,6.678447387580742e-08,0.003
1.76e-05,8.038726028924336e-08,0.0028
2.26e-05,9.574366667043317e-08,0.0026
2.902e-05,1.1400868319542507e-07,0.0025
3.727e-05,1.3317721184294908e-07,0.0024
4.785e-05,1.5496449256509506e-07,0.0022
6.144e-05,1.7982761400739604e-07,0.0022
7.889e-05,2.056662392405654e-07,0.002
0.0001013,2.3521555436703902e-07,0.0019
0.0001301,2.6616619514301825e-07,0.0018
0.000167,2.9915203769676407e-07,0.0017
0.0002145,3.362275080186815e-07,0.0017
0.0002754,3.7440312480963546e-07,0.0016
0.0003536,4.1374441160169436e-07,0.0015
0.000454,4.5704238633720397e-07,0.0015
0.0005829,5.013115338177042e-07,0.0014
0.0007485,5.469544474510859e-07,0.0013
0.0009611,5.938947581197052e-07,0.0013
0.001234,6.392711973582729e-07,0.0013
0.001585,6.862680190172988e-07,0.0012
0.002035,7.913044016732162e-07,0.0012
0.002249,8.503752783731599e-07,0.0017
0.002485,8.696294274594298e-07,0.0017
0.002613,8.828119167250881e-07,0.0024
0.002747,8.935837668728214e-07,0.0024
0.003035,9.061862774455566e-07,0.0017
0.003355,9.250656425431335e-07,0.0017
0.003707,9.442839584760091e-07,0.0017
0.004307,9.649464864198363e-07,0.0014
0.005531,9.969734380331462e-07,0.001
0.007102,1.0325077712679207e-06,0.001
0.009119,1.0663614652144507e-06,0.001
0.01059,1.0870611060513972e-06,0.0012
0.01171,1.101936480252341e-06,0.0015
0.01503,1.1149414909093113e-06,0.0009
0.0193,1.134089916763709e-06,0.0009
0.02187,1.155652717617675e-06,0.0013
0.02358,1.0491882178907923e-06,0.0017
0.02418,1.1964046534646022e-06,0.0028
0.02479,1.2051415425970005e-06,0.0028
0.02606,1.2362186715188123e-06,0.0019
0.027,1.2687237647782075e-06,0.0022
0.0285,1.2953726556408759e-06,0.0018
0.03183,2.3900333187503767e-06,0.0008
0.03431,1.0094443148459357e-06,0.0017
0.04087,1.7650147871655522e-06,0.0008
0.04631,1.7897414804662764e-05,0.0002
0.05248,9.759884647396637e-06,0.0003
0.05656,1.4570746532578773e-07,0.0052
0.06738,6.373573922407646e-07,0.0015
0.07202,1.4865166754177498e-06,0.0015
0.0795,3.0512027902479167e-06,0.0008
0.0825,7.443669925249219e-06,0.0008
0.08652,4.249841144585415e-05,0.0002
0.09804,1.823232618804367e-05,0.0002
0.1111,2.851078378249829e-07,0.0033
0.1168,1.268290813442543e-06,0.0022
0.1228,1.06699920838172e-05,0.0005
0.1291,2.226711408287726e-06,0.0017
0.1357,3.707053949058988e-05,0.0003
0.1426,6.4474540698266904e-06,0.0006
0.15,1.943185001898801e-07,0.0057
0.1576,4.452311976980615e-07,0.0038
0.1657,7.119471680682422e-07,0.0029
0.1742,9.914594944460765e-07,0.0024
0.1832,1.2440905529594043e-06,0.0021
0.1925,1.4759570376664888e-06,0.0019
0.2024,1.810911101223948e-06,0.0017
0.2128,2.245043686236051e-06,0.0015
0.2237,2.792498747878776e-06,0.0013
0.2352,2.7848001636323248e-06,0.0013
0.2472,2.5257272360441752e-06,0.0015
0.2732,4.734076919041434e-06,0.0007
0.2872,6.616126505933944e-06,0.0008
0.2945,1.1733547936183777e-05,0.0009
0.2972,1.4794479222115147e-05,0.0013
0.2985,1.762426057547727e-05,0.0016
0.302,2.1582497672461683e-05,0.0009
0.3337,2.4910993570374606e-05,0.0002
0.3688,2.103455357269717e-05,0.0003
0.3877,1.7151648669654095e-05,0.0005
0.4076,3.8006805517401894e-05,0.0003
0.4505,5.829505831393298e-06,0.0006
0.4979,1.684316455754584e-05,0.0003
0.5234,9.769807493006564e-06,0.0007
0.5502,2.288936321013602e-05,0.0004
0.5784,1.0324040373392333e-05,0.0007
0.6081,5.1313992648045564e-05,0.0002
0.6393,4.261640691302215e-06,0.0011
0.6721,1.1104661807072881e-05,0.0007
0.7065,3.208826776321873e-05,0.0003
0.7427,2.2792334643231848e-05,0.0004
0.7808,6.865454565820544e-06,0.0008
0.8209,1.2585373472462846e-05,0.0005
0.8629,1.0042164396436595e-05,0.0006
0.9072,5.975276891517683e-06,0.0008
0.9617,9.811822776945479e-06,0.0006
1.003,3.7101437286592047e-06,0.0012
1.108,6.0924409818451015e-06,0.0006
1.165,4.532966658225021e-06,0.001
1.225,6.155007881242669e-06,0.0007
1.287,1.8414972591796199e-06,0.0014
1.353,1.1335137627041198e-06,0.002
1.423,2.681503492300894e-06,0.001
1.496,2.99696804456658e-07,0.0035
1.572,2.2774836052853876e-07,0.0046
1.653,2.273186637618297e-07,0.0042
1.738,2.2860922657788373e-07,0.0042
1.827,1.593410107465845e-07,0.0049
1.921,1.5297562760663817e-07,0.0051
2.019,1.5330493132115336e-07,0.0049
2.122,1.0298653068469671e-07,0.0063
2.231,9.039211186916245e-08,0.0065
2.307,7.990521543805583e-08,0.0092
2.346,8.743796348277395e-08,0.0122
2.365,1.2123581188951318e-07,0.0162
2.385,9.284378258284608e-08,0.0147
2.466,8.103201624267561e-08,0.0087
2.592,7.452504708665036e-08,0.0074
2.725,5.733707886785784e-08,0.0093
2.865,5.9238215918769276e-08,0.0084
3.012,5.7499846373901435e-08,0.008
3.166,5.0788883963715976e-08,0.0088
3.329,4.481246396489243e-08,0.0098
3.679,3.62123194711072e-08,0.0074
4.066,3.190042215325026e-08,0.0078
4.493,2.6284658047696184e-08,0.0084
4.724,2.3624088219946417e-08,0.0131
4.966,2.281300304704455e-08,0.0129
5.22,2.3282814587316986e-08,0.0135
5.488,2.248689758513925e-08,0.013
5.77,2.174434953454368e-08,0.0126
6.065,2.2446144010763024e-08,0.0121
6.376,2.2168562826583392e-08,0.0118
6.592,2.3627731952044037e-08,0.0138
6.703,2.2401015497745142e-08,0.0203
7.047,2.3731783742650097e-08,0.0115
7.408,2.4913476691347033e-08,0.0118
7.788,2.578303547822305e-08,0.0101
8.187,2.8431587536669362e-08,0.0096
8.607,3.151776392529111e-08,0.0091
9.048,3.39882114952717e-08,0.0086
9.512,3.5042096824275e-08,0.0084
10.0,4.358423564891171e-08,0.0073
10.51,6.400273648989656e-08,0.0059
11.05,6.575143239879849e-08,0.0057
11.62,6.915994253185616e-08,0.0055
12.21,7.64386895116478e-08,0.0052
12.52,8.246624141661974e-08,0.0069
12.84,8.266881578240025e-08,0.0069
13.5,8.578937801947687e-08,0.0048
13.84,8.424668098342257e-08,0.0066
14.19,1.870648995425837e-08,0.0139
14.55,0.0,0.0
14.92,0.0,0.0
15.68,0.0,0.0
16.49,0.0,0.0
16.9,0.0,0.0
17.33,0.0,0.0
19.64,0.0,0.0
