Energy,Value,Error
1e-07,1.080171444796676e-11,0.059
4.14e-07,5.529431471011066e-10,0.0195
5.316e-07,1.2786823261974756e-09,0.0292
6.826e-07,1.6380399636502336e-09,0.0274
8.764e-07,2.0407615218801096e-09,0.0251
1.125e-06,2.4991579732984416e-09,0.0249
1.445e-06,2.8496408094439313e-09,0.0234
1.855e-06,3.284979560770971e-09,0.0216
2.382e-06,3.764116227571114e-09,0.0217
3.059e-06,4.423788297390134e-09,0.0198
3.928e-06,4.8783340917266195e-09,0.0202
5.043e-06,5.642357039855632e-09,0.0245
6.476e-06,5.9242254581977144e-09,0.0183
8.315e-06,6.487847964625542e-09,0.0215
1.068e-05,6.6878210659366926e-09,0.0175
1.371e-05,7.067792590084609e-09,0.0176
1.76e-05,7.352904423456456e-09,0.0204
2.26e-05,7.275475679739977e-09,0.0173
2.902e-05,6.946897953776985e-09,0.0173
3.727e-05,6.698907998999097e-09,0.0186
4.785e-05,6.00018238000123e-09,0.0188
6.144e-05,5.362175110293923e-09,0.0187
7.889e-05,4.528799772849098e-09,0.0196
0.0001013,3.7843366017449705e-09,0.0203
0.0001301,3.0856939353200165e-09,0.0208
0.000167,2.5207814645467963e-09,0.0225
0.0002145,2.3106160656852833e-09,0.0237
0.0002754,3.380699494287509e-09,0.0194
0.0003536,4.5557015792595186e-09,0.015
0.000454,6.429577976911029e-09,0.013
0.0005829,8.563793611893823e-09,0.0118
0.0007485,1.1338680145779114e-08,0.0106
0.0009611,1.610389247375479e-08,0.0083
0.001234,2.1998118179394925e-08,0.0076
0.001585,3.031193855263882e-08,0.0059
0.002035,4.242783446176828e-08,0.005
0.002249,5.362604085379896e-08,0.0074
0.002485,6.242537443038222e-08,0.0069
0.002613,6.974151226916406e-08,0.0086
0.002747,7.522572209492902e-08,0.0087
0.003035,8.317464597400755e-08,0.006
0.003355,9.603817616944116e-08,0.0055
0.003707,1.1475060245636856e-07,0.0049
0.004307,1.357237628118467e-07,0.0037
0.005531,1.8116794860838117e-07,0.0025
0.007102,2.6601289666455326e-07,0.0021
0.009119,3.7578887974347445e-07,0.0017
0.01059,4.901250068498279e-07,0.0019
0.01171,5.760614885959674e-07,0.0022
0.01503,7.169967798993003e-07,0.0012
0.0193,9.239017489873871e-07,0.0011
0.02187,1.1203197530805269e-06,0.0014
0.02358,1.1941770100443684e-06,0.0018
0.02418,1.2440865247744267e-06,0.003
0.02479,1.272812976572073e-06,0.003
0.02606,1.2935211088144619e-06,0.0021
0.027,1.3099171576516426e-06,0.0025
0.0285,1.333133057452433e-06,0.002
0.03183,1.3948761156691766e-06,0.0014
0.03431,1.4676595964579714e-06,0.0016
0.04087,1.540614206999018e-06,0.001
0.04631,1.5321583981665635e-06,0.0012
0.05248,1.5329697330804154e-06,0.0012
0.05656,1.5154025172501143e-06,0.0016
0.06738,1.4939254637600134e-06,0.0011
0.07202,1.4865361962209988e-06,0.0017
0.0795,1.4207418841101445e-06,0.0015
0.0825,1.3685437270473936e-06,0.0024
0.08652,1.314651941557057e-06,0.0022
0.09804,1.2139364120094964e-06,0.0015
0.1111,6.60982038254759e-07,0.002
0.1168,5.954204801419795e-07,0.0034
0.1228,6.109520782433469e-07,0.0034
0.1291,6.235223681726312e-07,0.0034
0.1357,6.307172294769434e-07,0.0032
0.1426,6.434650860890567e-07,0.0033
0.15,6.543354671064145e-07,0.0032
0.1576,6.610637759827662e-07,0.0033
0.1657,6.687337972387122e-07,0.0031
0.1742,6.756722721722906e-07,0.0032
0.1832,6.842842462335724e-07,0.0032
0.1925,6.871179190006766e-07,0.0032
0.2024,6.958035994502001e-07,0.0034
0.2128,6.951788192173454e-07,0.0031
0.2237,6.979805518026996e-07,0.0031
0.2352,7.007591555216508e-07,0.0032
0.2472,7.006137938524371e-07,0.0032
0.2732,6.953304841559903e-07,0.0022
0.2872,6.878619277521209e-07,0.0037
0.2945,6.783222093396747e-07,0.0044
0.2972,6.82963888954076e-07,0.0079
0.2985,6.708991864915144e-07,0.0114
0.302,6.813822076383548e-07,0.0067
0.3337,6.60978375065482e-07,0.0024
0.3688,6.293128158618013e-07,0.0023
0.3877,5.989212754690552e-07,0.0034
0.4076,5.815326333661985e-07,0.0037
0.4505,5.422517949793512e-07,0.0029
0.4979,4.821164808263881e-07,0.0029
0.5234,4.309891202291243e-07,0.0042
0.5502,3.895096755194669e-07,0.0045
0.5784,3.5223596697507486e-07,0.0046
0.6081,3.1624004381415534e-07,0.0051
0.6393,2.7485442934556893e-07,0.0056
0.6721,2.3713001827534317e-07,0.0058
0.7065,2.0292065040933653e-07,0.0071
0.7427,1.670752115231164e-07,0.0072
0.7808,1.373242831612998e-07,0.0079
0.8209,1.0861110376854172e-07,0.0087
0.8629,8.584456391233399e-08,0.0098
0.9072,6.680392602347027e-08,0.0111
0.9617,5.6433862113387255e-08,0.0118
1.003,4.9991870950948074e-08,0.0151
1.108,4.26054039178163e-08,0.0105
1.165,3.6261699955338415e-08,0.0169
1.225,3.4503751197435346e-08,0.0201
1.287,3.012289006303845e-08,0.017
1.353,2.9193915652445692e-08,0.0184
1.423,2.586524945088326e-08,0.0188
1.496,2.3199612167496144e-08,0.019
1.572,2.2763333406563735e-08,0.0203
1.653,2.06493923988951e-08,0.0202
1.738,1.7976711819524232e-08,0.0238
1.827,1.6402821190015358e-08,0.0238
1.921,1.512309805653282e-08,0.0251
2.019,1.315984012199725e-08,0.0268
2.122,1.151322314554763e-08,0.0273
2.231,1.0767050829429451e-08,0.0285
2.307,9.620824728547483e-09,0.0343
2.346,8.478163992081219e-09,0.0577
2.365,7.014541787816115e-09,0.0774
2.385,9.151248420025168e-09,0.0722
2.466,7.963164474338693e-09,0.0366
2.592,7.27195942608388e-09,0.0345
2.725,6.35446804383786e-09,0.0668
2.865,6.0508876578372034e-09,0.0371
3.012,5.2260614405531545e-09,0.0519
3.166,4.6006538299498465e-09,0.0453
3.329,4.869091766517701e-09,0.0429
3.679,3.55645187664466e-09,0.0323
4.066,3.0940102108425493e-09,0.0367
4.493,2.435417303032926e-09,0.0418
4.724,1.9892982223304086e-09,0.0614
4.966,1.9497690483603904e-09,0.0584
5.22,1.8204021242323198e-09,0.0638
5.488,1.86865511739934e-09,0.0609
5.77,1.9756949873762335e-09,0.0642
6.065,1.6891865509859877e-09,0.0651
6.376,2.2981258816256887e-09,0.0676
6.592,2.0408723690297633e-09,0.0719
6.703,2.2644691614903372e-09,0.0923
7.047,2.4640932652552074e-09,0.0534
7.408,2.4120618666742123e-09,0.0525
7.788,3.043404111831375e-09,0.0479
8.187,3.456767388903684e-09,0.0462
8.607,3.523166220997197e-09,0.0434
9.048,4.284169310262088e-09,0.0422
9.512,5.475378868114105e-09,0.0349
10.0,6.85537876834363e-09,0.0304
10.51,1.0385369418970061e-08,0.024
11.05,1.327215483847795e-08,0.0285
11.62,1.216883837738831e-08,0.022
12.21,9.665956191419736e-09,0.0234
12.52,9.177141365617156e-09,0.034
12.84,8.742356340575352e-09,0.0358
13.5,7.221654375175752e-09,0.0279
13.84,6.408768677266147e-09,0.0397
14.19,1.0410401543833517e-09,0.0968
14.55,0.0,0.0
14.92,0.0,0.0
15.68,0.0,0.0
16.49,0.0,0.0
16.9,0.0,0.0
17.33,0.0,0.0
19.64,0.0,0.0
