Energy,Value,Error
1e-07,4.4904601780523226e-11,0.2259
4.14e-07,8.775207265855851e-10,0.1775
5.316e-07,1.516746183652445e-09,0.2562
6.826e-07,1.2269850821754578e-09,0.3119
8.764e-07,2.5181465610514003e-09,0.2027
1.125e-06,3.629166988284249e-09,0.1889
1.445e-06,4.221570244478177e-09,0.2009
1.855e-06,4.874699927731901e-09,0.1368
2.382e-06,4.91870263992577e-09,0.1523
3.059e-06,7.106884259399294e-09,0.1288
3.928e-06,7.279087641044594e-09,0.1172
5.043e-06,1.3699842676055354e-08,0.1308
6.476e-06,1.1372964710728222e-08,0.0916
8.315e-06,1.6010244800890004e-08,0.0922
1.068e-05,1.9143170695391272e-08,0.1004
1.371e-05,2.2010696498975082e-08,0.0853
1.76e-05,2.7720444872076335e-08,0.065
2.26e-05,3.534262950499926e-08,0.0614
2.902e-05,4.681018269204222e-08,0.0658
3.727e-05,4.861283575620994e-08,0.0517
4.785e-05,6.063932366871066e-08,0.0455
6.144e-05,7.251290894512685e-08,0.0398
7.889e-05,8.854994187408533e-08,0.0366
0.0001013,1.1223046406316386e-07,0.0398
0.0001301,1.2999158068990704e-07,0.0315
0.000167,1.5381126331945157e-07,0.0312
0.0002145,1.864328041559616e-07,0.026
0.0002754,2.3275927974120132e-07,0.0238
0.0003536,2.794027070123135e-07,0.0229
0.000454,3.332581561740471e-07,0.0217
0.0005829,4.001301272328098e-07,0.0178
0.0007485,4.784576698483967e-07,0.0158
0.0009611,5.973266584851918e-07,0.0156
0.001234,7.095246925479356e-07,0.0144
0.001585,8.787469652379036e-07,0.0126
0.002035,1.0170924104983067e-06,0.0109
0.002249,1.2152532985956279e-06,0.0159
0.002485,1.2736630733812514e-06,0.0154
0.002613,1.3329165004139076e-06,0.0203
0.002747,1.4331373177116144e-06,0.0216
0.003035,1.5069504501573361e-06,0.0158
0.003355,1.6303016366600268e-06,0.0144
0.003707,1.8212378345799877e-06,0.0142
0.004307,1.965995143124626e-06,0.011
0.005531,2.2707502323467704e-06,0.0074
0.007102,2.7021996534497085e-06,0.007
0.009119,3.171954628348523e-06,0.0064
0.01059,3.5937610276435087e-06,0.0082
0.01171,3.940963952902905e-06,0.009
0.01503,4.3323646829426e-06,0.0057
0.0193,4.945794492551428e-06,0.0052
0.02187,5.4705140269217085e-06,0.0071
0.02358,5.63850616099738e-06,0.0087
0.02418,6.136001366060771e-06,0.0168
0.02479,5.737421785033662e-06,0.0158
0.02606,4.5786706996414915e-06,0.0122
0.027,5.997325665057083e-06,0.0123
0.0285,6.107286304752899e-06,0.0101
0.03183,6.258730700276677e-06,0.0076
0.03431,6.403335575966161e-06,0.0093
0.04087,6.143023752614236e-06,0.0057
0.04631,6.507693970520511e-06,0.0064
0.05248,5.94593334553651e-06,0.007
0.05656,6.183782034179527e-06,0.0089
0.06738,8.736321364365016e-06,0.0045
0.07202,5.01668125898289e-06,0.0099
0.0795,4.986380183055178e-06,0.0103
0.0825,4.729805215973323e-06,0.0151
0.08652,4.71535718679336e-06,0.0121
0.09804,5.160801751573895e-06,0.0074
0.1111,4.868444510210786e-06,0.0075
0.1168,4.967623588062149e-06,0.0115
0.1228,4.9517760763461915e-06,0.0116
0.1291,4.049687336058736e-06,0.0131
0.1357,5.29502348023474e-06,0.0106
0.1426,4.972282449980174e-06,0.0119
0.15,7.013668171074114e-06,0.009
0.1576,4.1781383403894704e-06,0.0129
0.1657,4.807143322198242e-06,0.0116
0.1742,5.039825976921522e-06,0.0126
0.1832,5.232262095835127e-06,0.0113
0.1925,5.356427944566458e-06,0.012
0.2024,7.316621788466446e-06,0.0094
0.2128,2.7701418659159997e-05,0.004
0.2237,2.0131879262221253e-05,0.0049
0.2352,5.09074866986478e-06,0.0129
0.2472,6.525224071319531e-06,0.0107
0.2732,1.2836278206951448e-05,0.0044
0.2872,5.338380208502571e-06,0.0108
0.2945,5.924980754644529e-06,0.0145
0.2972,6.968008069890837e-06,0.0222
0.2985,1.2586250380969377e-05,0.021
0.302,5.800918725014485e-06,0.0216
0.3337,7.494146564022074e-06,0.0065
0.3688,3.197702888483065e-05,0.0027
0.3877,2.904155408473385e-05,0.0041
0.4076,3.1545243021150665e-05,0.004
0.4505,2.454638166278033e-05,0.0032
0.4979,3.7264755640724066e-05,0.0026
0.5234,2.0911876816803276e-05,0.0053
0.5502,3.6438144021231145e-05,0.0038
0.5784,2.3507806019242348e-05,0.0052
0.6081,2.229934357563949e-05,0.0053
0.6393,3.159620768694535e-05,0.0041
0.6721,2.340340808633501e-05,0.005
0.7065,2.3460984823908166e-05,0.0051
0.7427,2.2586206813266975e-05,0.0051
0.7808,2.0650514628782894e-05,0.0052
0.8209,1.3950247864952296e-05,0.0075
0.8629,1.0768613469421163e-05,0.0072
0.9072,8.509726537946434e-06,0.0083
0.9617,8.101647048232147e-06,0.008
1.003,5.979537370937183e-06,0.0105
1.108,5.049181902262718e-06,0.0079
1.165,3.5960490925171477e-06,0.0126
1.225,3.925905099109494e-06,0.0122
1.287,3.5189415720468264e-06,0.0132
1.353,3.193754384879643e-06,0.0134
1.423,2.531393377608019e-06,0.0154
1.496,2.1336439165021333e-06,0.0164
1.572,1.884113282243795e-06,0.0171
1.653,1.5252375376021057e-06,0.0183
1.738,1.3888521052344623e-06,0.0285
1.827,1.0681003681337946e-06,0.024
1.921,9.926668936849982e-07,0.0235
2.019,7.998881665632362e-07,0.0256
2.122,5.592894930411578e-07,0.0329
2.231,5.294776715933776e-07,0.0304
2.307,4.628566032884024e-07,0.0409
2.346,3.8900913073610444e-07,0.0623
2.365,4.157385368951141e-07,0.0894
2.385,4.443729364454863e-07,0.1
2.466,3.652253904462992e-07,0.0599
2.592,3.3701384736294843e-07,0.04
2.725,2.944024291292467e-07,0.0452
2.865,2.518367191675776e-07,0.0492
3.012,2.1497539068384765e-07,0.0486
3.166,1.9926761136154463e-07,0.0472
3.329,1.8298309910597378e-07,0.0645
3.679,1.5380565279061966e-07,0.0424
4.066,1.2723215785967753e-07,0.042
4.493,1.0537756451008328e-07,0.044
4.724,1.0085933868107333e-07,0.0603
4.966,1.0162556232736346e-07,0.0759
5.22,9.082043784877283e-08,0.0663
5.488,8.416168426823487e-08,0.0659
5.77,1.0603795486876324e-07,0.0597
6.065,9.75407113289856e-08,0.0602
6.376,1.2354618833173805e-07,0.0564
6.592,1.1131307997280892e-07,0.0679
6.703,1.3216240426554425e-07,0.0878
7.047,1.2230011005064471e-07,0.0546
7.408,1.191863174947423e-07,0.0531
7.788,1.332793183749036e-07,0.0558
8.187,1.3145991590696238e-07,0.0531
8.607,1.389371746941705e-07,0.0539
9.048,1.3444968134461673e-07,0.0495
9.512,1.4741327737873982e-07,0.0501
10.0,1.593324254719348e-07,0.0465
10.51,3.298634893501668e-07,0.0383
11.05,3.3841521944302005e-07,0.0311
11.62,3.631346311006834e-07,0.0311
12.21,3.8036618123263344e-07,0.0296
12.52,4.277427739642081e-07,0.0463
12.84,4.1722514165956337e-07,0.0383
13.5,4.0703540026710185e-07,0.0275
13.84,4.2243348863374e-07,0.0384
14.19,1.4575042650678357e-07,0.0632
14.55,0.0,0.0
14.92,0.0,0.0
15.68,0.0,0.0
16.49,0.0,0.0
16.9,0.0,0.0
17.33,0.0,0.0
19.64,0.0,0.0
