Energy,Value,Error
1e-07,1.9737236554229785e-11,0.025
4.14e-07,5.90715484049957e-10,0.0127
5.316e-07,1.3690051663726304e-09,0.0226
6.826e-07,1.7773220971080778e-09,0.0187
8.764e-07,2.28376953339607e-09,0.0165
1.125e-06,2.828356328559509e-09,0.0154
1.445e-06,3.588911954416713e-09,0.0138
1.855e-06,4.565341968981063e-09,0.0123
2.382e-06,5.868730689147905e-09,0.0113
3.059e-06,7.083657971664036e-09,0.0099
3.928e-06,9.054507060239864e-09,0.0091
5.043e-06,1.1469289503283918e-08,0.0081
6.476e-06,1.4311726956804068e-08,0.0073
8.315e-06,1.7935207603065033e-08,0.0065
1.068e-05,2.216068820245401e-08,0.0061
1.371e-05,2.7619605728464162e-08,0.0055
1.76e-05,3.373813910625352e-08,0.005
2.26e-05,4.170509145500339e-08,0.0043
2.902e-05,5.188146579157141e-08,0.0039
3.727e-05,6.392917034072768e-08,0.0036
4.785e-05,7.883628319763911e-08,0.0033
6.144e-05,9.692868841435155e-08,0.0031
7.889e-05,1.1808792306299653e-07,0.0026
0.0001013,1.4554460862791982e-07,0.0024
0.0001301,1.7667706249772133e-07,0.0022
0.000167,2.1577278980721622e-07,0.002
0.0002145,2.628238684772904e-07,0.0018
0.0002754,3.1867854455541735e-07,0.0016
0.0003536,3.857026772571893e-07,0.0015
0.000454,4.663889709565538e-07,0.0014
0.0005829,5.613991351118566e-07,0.0012
0.0007485,6.730944147061082e-07,0.0011
0.0009611,8.074365586001583e-07,0.001
0.001234,9.627397505559868e-07,0.001
0.001585,1.1424137995007477e-06,0.0009
0.002035,1.352479256080964e-06,0.0008
0.002249,1.5151837292893222e-06,0.0012
0.002485,1.6134769225120975e-06,0.0011
0.002613,1.6950811477245477e-06,0.0016
0.002747,1.749087470068576e-06,0.0015
0.003035,1.8343360021426508e-06,0.0011
0.003355,1.9473097206887725e-06,0.001
0.003707,2.072763441511943e-06,0.001
0.004307,2.2281558253877216e-06,0.0008
0.005531,2.504655385194215e-06,0.0006
0.007102,2.8657345488660174e-06,0.0005
0.009119,3.257476199418435e-06,0.0005
0.01059,3.569708872888838e-06,0.0006
0.01171,3.7705124898758143e-06,0.0007
0.01503,4.0253596471051594e-06,0.0004
0.0193,4.3034606675503284e-06,0.0004
0.02187,4.708227515125692e-06,0.0006
0.02358,4.81375223025717e-06,0.0007
0.02418,4.852399500310195e-06,0.0013
0.02479,4.8673662249638825e-06,0.0013
0.02606,4.910508035183975e-06,0.0009
0.027,4.924892071869247e-06,0.0011
0.0285,4.9473968462858195e-06,0.0009
0.03183,4.959850107116233e-06,0.0006
0.03431,5.041103826831284e-06,0.0007
0.04087,4.27625966899356e-06,0.0005
0.04631,4.91624536927334e-06,0.0006
0.05248,4.749395841304717e-06,0.0006
0.05656,4.279277768859374e-06,0.0008
0.06738,4.136479010699684e-06,0.0005
0.07202,4.008281611143553e-06,0.0008
0.0795,3.930873038363895e-06,0.0007
0.0825,3.884396876048183e-06,0.0011
0.08652,3.8863905665711565e-06,0.001
0.09804,3.930313333946655e-06,0.0006
0.1111,4.165490585918035e-06,0.0006
0.1168,4.574378204605338e-06,0.0009
0.1228,4.830424085376046e-06,0.0009
0.1291,5.0582964792021605e-06,0.0009
0.1357,5.209562941272442e-06,0.0008
0.1426,4.963935161004497e-06,0.0008
0.15,4.204971129344408e-06,0.0009
0.1576,3.4730076925525594e-06,0.0011
0.1657,2.37238572582968e-06,0.0013
0.1742,4.540417079574127e-06,0.0009
0.1832,5.01459195681872e-06,0.0009
0.1925,5.156418660968383e-06,0.0009
0.2024,5.916695510811557e-06,0.0008
0.2128,6.3248276313948605e-06,0.0008
0.2237,6.772250877554953e-06,0.0007
0.2352,7.301146272579411e-06,0.0007
0.2472,7.911858050300817e-06,0.0007
0.2732,9.11669633878947e-06,0.0004
0.2872,1.0861393806503212e-05,0.0006
0.2945,1.2152748352410256e-05,0.0007
0.2972,1.3030129727344055e-05,0.0012
0.2985,1.3260352595453033e-05,0.0017
0.302,1.3424969119276135e-05,0.001
0.3337,1.4841301735458372e-05,0.0003
0.3688,4.806998068413777e-05,0.0002
0.3877,3.9759608721591914e-05,0.0002
0.4076,3.0932710151178605e-06,0.0012
0.4505,5.751301962767293e-06,0.0006
0.4979,7.259920611548018e-06,0.0005
0.5234,4.680606114151623e-06,0.0009
0.5502,3.5197352293759557e-06,0.0011
0.5784,3.7140817019737924e-06,0.0011
0.6081,4.494717368229242e-06,0.0009
0.6393,5.2686061741862486e-06,0.0008
0.6721,3.135471073716268e-06,0.0011
0.7065,5.337079553060491e-06,0.0008
0.7427,4.545438849296163e-06,0.0009
0.7808,4.839562082070478e-06,0.0009
0.8209,9.434976773232449e-06,0.0006
0.8629,1.127250634742963e-05,0.0005
0.9072,5.27185900328318e-06,0.0009
0.9617,8.462156774768904e-06,0.0006
1.003,1.0765088870284768e-05,0.0006
1.108,8.88157305861709e-06,0.0004
1.165,2.825862984672693e-06,0.0011
1.225,2.590235553197244e-06,0.0011
1.287,2.46077394073593e-06,0.0012
1.353,2.797376994483457e-06,0.0011
1.423,2.5695751104260953e-06,0.0011
1.496,2.4087922522929904e-06,0.0012
1.572,2.190810156485119e-06,0.0012
1.653,3.1931333995816225e-06,0.0009
1.738,3.7777598909049772e-06,0.0009
1.827,3.2095954310632244e-06,0.0009
1.921,1.448254370983365e-06,0.0015
2.019,1.5945709784209007e-06,0.0014
2.122,2.332148192943035e-06,0.0011
2.231,1.982810232147816e-06,0.0012
2.307,2.0966555124669343e-06,0.0014
2.346,1.9919503744703387e-06,0.002
2.365,2.084531813341804e-06,0.003
2.385,1.5706375932017562e-06,0.0033
2.466,2.1515538864696595e-06,0.0013
2.592,1.2206562807494791e-06,0.0016
2.725,1.3946739275090936e-06,0.0014
2.865,1.4172756581740125e-06,0.0014
3.012,1.5424906477924382e-06,0.0013
3.166,1.231577843754178e-06,0.0014
3.329,1.5049340540015406e-06,0.0013
3.679,1.5715669102504373e-06,0.0009
4.066,1.5253841569888588e-06,0.0009
4.493,1.3542335373151554e-06,0.0009
4.724,1.1084013697926564e-06,0.0014
4.966,9.368481736698491e-07,0.0016
5.22,9.979809677769385e-07,0.0015
5.488,1.388096150575731e-06,0.0012
5.77,1.0433025000384322e-06,0.0014
6.065,9.975901335095668e-07,0.0014
6.376,1.0762542590017658e-06,0.0014
6.592,1.2977216114106825e-06,0.0015
6.703,1.3822466362654886e-06,0.002
7.047,1.1205789818852043e-06,0.0013
7.408,1.1509892520430242e-06,0.0013
7.788,1.0599579083381972e-06,0.0013
8.187,1.0341501109039134e-06,0.0013
8.607,1.039659650926452e-06,0.0012
9.048,1.0505401705713565e-06,0.0012
9.512,1.0499871706059036e-06,0.0012
10.0,1.2250920697027007e-06,0.0011
10.51,1.7501596069600826e-06,0.0009
11.05,1.860320695422009e-06,0.0009
11.62,1.947125478314544e-06,0.0009
12.21,1.971180206147228e-06,0.0009
12.52,1.9531049991224615e-06,0.0012
12.84,1.9846712808845165e-06,0.0012
13.5,1.8817586668231963e-06,0.0009
13.84,1.7215834125018638e-06,0.0013
14.19,4.873523004312208e-07,0.0025
14.55,0.0,0.0
14.92,0.0,0.0
15.68,0.0,0.0
16.49,0.0,0.0
16.9,0.0,0.0
17.33,0.0,0.0
19.64,0.0,0.0
