Energy,Value,Error
1e-07,4.02094e-13,0.2467
4.14e-07,6.87989e-11,0.0223
5.316e-07,8.33903e-11,0.0196
6.826e-07,1.68989e-10,0.0136
8.764e-07,3.1619e-10,0.0101
1.125e-06,5.71847e-10,0.0075
1.445e-06,9.83168e-10,0.0055
1.855e-06,1.57503e-09,0.0046
2.382e-06,2.45466e-09,0.0036
3.059e-06,3.65778e-09,0.003
3.928e-06,5.30045e-09,0.0025
5.043e-06,7.38375e-09,0.0021
6.476e-06,1.00911e-08,0.0018
8.315e-06,1.34115e-08,0.0016
1.068e-05,1.7657e-08,0.0013
1.371e-05,2.219e-08,0.0011
1.76e-05,2.78844e-08,0.0011
2.26e-05,3.44467e-08,0.001
2.902e-05,4.19292e-08,0.0009
3.727e-05,5.04831e-08,0.0009
4.785e-05,5.99098e-08,0.0009
6.144e-05,7.06328e-08,0.0008
7.889e-05,8.23481e-08,0.0008
0.0001013,9.52541e-08,0.0007
0.0001301,1.09363e-07,0.0007
0.000167,1.24458e-07,0.0007
0.0002145,1.41158e-07,0.0006
0.0002754,1.58753e-07,0.0006
0.0003536,1.77522e-07,0.0006
0.000454,1.97651e-07,0.0006
0.0005829,2.1876e-07,0.0005
0.0007485,2.3992e-07,0.0005
0.0009611,2.61615e-07,0.0005
0.001234,2.82234e-07,0.0005
0.001585,3.01625e-07,0.0005
0.002035,3.15497e-07,0.0005
0.002249,1.28551e-07,0.0007
0.002485,1.28267e-07,0.0007
0.002613,6.41955e-08,0.001
0.002747,6.34541e-08,0.001
0.003035,1.23679e-07,0.0007
0.003355,1.18311e-07,0.0007
0.003707,1.06997e-07,0.0007
0.004307,1.24339e-07,0.0007
0.005531,6.36901e-08,0.001
0.007102,7.04641e-09,0.0035
0.009119,6.83972e-08,0.0011
0.01059,8.31635e-08,0.0009
0.01171,7.38053e-08,0.0009
0.01503,2.52685e-07,0.0005
0.0193,3.92614e-07,0.0003
0.02187,5.93686e-08,0.0008
0.02358,1.90303e-09,0.0067
0.02418,2.12263e-09,0.0058
0.02479,3.20861e-09,0.0043
0.02606,9.99709e-09,0.0023
0.027,1.01959e-08,0.0023
0.0285,2.20352e-08,0.0015
0.03183,1.10791e-07,0.0006
0.03431,1.04776e-07,0.0005
0.04087,1.13117e-08,0.002
0.04631,2.73037e-08,0.0011
0.05248,4.64437e-08,0.0008
0.05656,4.15026e-08,0.0008
0.06738,1.51381e-07,0.0004
0.07202,1.36924e-07,0.0004
0.0795,5.12572e-08,0.0007
0.0825,1.94921e-10,0.0152
0.08652,2.87136e-10,0.0114
0.09804,1.47285e-09,0.0059
0.1111,1.7391e-08,0.0013
0.1168,8.7132e-09,0.0018
0.1228,8.80573e-09,0.0017
0.1291,8.54502e-09,0.0017
0.1357,4.95917e-09,0.0024
0.1426,4.02973e-09,0.0029
0.15,4.18191e-09,0.0028
0.1576,4.20534e-09,0.0028
0.1657,4.37513e-09,0.0066
0.1742,4.43224e-09,0.0028
0.1832,4.53321e-09,0.0026
0.1925,4.56308e-09,0.0027
0.2024,4.69379e-09,0.0026
0.2128,4.75792e-09,0.0026
0.2237,4.82532e-09,0.0026
0.2352,4.96003e-09,0.0026
0.2472,5.02019e-09,0.0026
0.2732,1.02977e-08,0.0018
0.2872,5.24638e-09,0.0025
0.2945,2.63395e-09,0.0034
0.2972,9.766e-10,0.006
0.2985,4.72127e-10,0.0186
0.302,1.24147e-09,0.0055
0.3337,1.08559e-08,0.0017
0.3688,1.11821e-08,0.0017
0.3877,5.7126e-09,0.0024
0.4076,5.77899e-09,0.0024
0.4505,1.17749e-08,0.0017
0.4979,1.20652e-08,0.0016
0.5234,6.13867e-09,0.0023
0.5502,6.25004e-09,0.0023
0.5784,6.37173e-09,0.0023
0.6081,6.47647e-09,0.0022
0.6393,6.57974e-09,0.0023
0.6721,6.76367e-09,0.0025
0.7065,6.87323e-09,0.0022
0.7427,7.02582e-09,0.0022
0.7808,7.21929e-09,0.0022
0.8209,7.40234e-09,0.0022
0.8629,7.55712e-09,0.0021
0.9072,7.80046e-09,0.002
0.9617,9.33407e-09,0.0019
1.003,6.96402e-09,0.0022
1.108,1.72609e-08,0.0014
1.165,9.17811e-09,0.0019
1.225,9.4975e-09,0.0019
1.287,9.70702e-09,0.0018
1.353,1.01646e-08,0.0018
1.423,1.05903e-08,0.0017
1.496,1.07761e-08,0.0017
1.572,1.09782e-08,0.0017
1.653,1.14562e-08,0.0016
1.738,1.17702e-08,0.0016
1.827,1.19745e-08,0.0016
1.921,1.22836e-08,0.0016
2.019,1.24272e-08,0.0016
2.122,1.26462e-08,0.0015
2.231,1.2996e-08,0.0015
2.307,8.80738e-09,0.0019
2.346,4.44543e-09,0.0026
2.365,2.15203e-09,0.0037
2.385,2.24662e-09,0.0035
2.466,9.06161e-09,0.0018
2.592,1.36957e-08,0.0015
2.725,1.40693e-08,0.0014
2.865,1.43587e-08,0.0014
3.012,1.45229e-08,0.0014
3.166,1.46085e-08,0.0014
3.329,1.47969e-08,0.0014
3.679,2.93285e-08,0.001
4.066,2.87124e-08,0.0009
4.493,2.83287e-08,0.0009
4.724,1.42962e-08,0.0014
4.966,1.44715e-08,0.0013
5.22,1.4706e-08,0.0013
5.488,1.49298e-08,0.0013
5.77,1.50689e-08,0.0013
6.065,1.51831e-08,0.0012
6.376,1.54657e-08,0.0012
6.592,1.04056e-08,0.0015
6.703,5.2765e-09,0.0021
7.047,1.59904e-08,0.0012
7.408,1.63524e-08,0.0012
7.788,1.70222e-08,0.0012
8.187,1.80302e-08,0.0011
8.607,1.90364e-08,0.0011
9.048,1.99774e-08,0.001
9.512,2.22414e-08,0.001
10.0,2.83168e-08,0.0009
10.51,4.31663e-08,0.0007
11.05,4.60949e-08,0.0007
11.62,4.80316e-08,0.0007
12.21,4.80047e-08,0.0007
12.52,2.46283e-08,0.001
12.84,2.51628e-08,0.001
13.5,4.74222e-08,0.0007
13.84,1.98217e-08,0.001
14.19,5.49709e-09,0.0021
14.55,0.0,0.0
14.92,0.0,0.0
15.68,0.0,0.0
16.49,0.0,0.0
16.9,0.0,0.0
17.33,0.0,0.0
19.64,0.0,0.0
