Energy,Value,Error
1e-07,1.41977e-10,0.0208
4.14e-07,4.97773e-10,0.0107
5.316e-07,1.74198e-10,0.0196
6.826e-07,2.23439e-10,0.017
8.764e-07,2.85278e-10,0.0143
1.125e-06,3.5582e-10,0.0129
1.445e-06,4.57188e-10,0.0115
1.855e-06,5.7309e-10,0.0112
2.382e-06,7.02839e-10,0.0091
3.059e-06,8.94695e-10,0.008
3.928e-06,1.1193e-09,0.0073
5.043e-06,1.36472e-09,0.0067
6.476e-06,1.71756e-09,0.0059
8.315e-06,2.13123e-09,0.0053
1.068e-05,2.66202e-09,0.0048
1.371e-05,3.30369e-09,0.0043
1.76e-05,4.09401e-09,0.0038
2.26e-05,5.08851e-09,0.0034
2.902e-05,6.27274e-09,0.003
3.727e-05,7.84428e-09,0.0027
4.785e-05,9.68731e-09,0.0025
6.144e-05,1.19485e-08,0.0022
7.889e-05,1.47509e-08,0.002
0.0001013,1.82363e-08,0.0018
0.0001301,2.24227e-08,0.0016
0.000167,2.75427e-08,0.0015
0.0002145,3.39021e-08,0.0013
0.0002754,4.14749e-08,0.0012
0.0003536,5.0771e-08,0.0011
0.000454,6.20416e-08,0.001
0.0005829,7.56802e-08,0.0009
0.0007485,9.20107e-08,0.0008
0.0009611,1.11569e-07,0.0007
0.001234,1.34811e-07,0.0007
0.001585,1.62909e-07,0.0006
0.002035,1.95523e-07,0.0005
0.002249,8.87277e-08,0.0008
0.002485,9.49207e-08,0.0008
0.002613,5.05285e-08,0.0011
0.002747,5.2053e-08,0.001
0.003035,1.09497e-07,0.0007
0.003355,1.17838e-07,0.0007
0.003707,1.25715e-07,0.0007
0.004307,2.05564e-07,0.0005
0.005531,3.92003e-07,0.0004
0.007102,4.6039e-07,0.0003
0.009119,5.37122e-07,0.0003
0.01059,3.61071e-07,0.0004
0.01171,2.60122e-07,0.0005
0.01503,7.10762e-07,0.0003
0.0193,8.12114e-07,0.0003
0.02187,4.46417e-07,0.0003
0.02358,2.82829e-07,0.0004
0.02418,9.67371e-08,0.0007
0.02479,9.72317e-08,0.0007
0.02606,1.97766e-07,0.0005
0.027,1.42945e-07,0.0006
0.0285,2.21935e-07,0.0005
0.03183,4.68616e-07,0.0003
0.03431,3.29897e-07,0.0004
0.04087,8.04036e-07,0.0002
0.04631,6.01532e-07,0.0003
0.05248,6.18982e-07,0.0003
0.05656,3.76569e-07,0.0003
0.06738,8.97165e-07,0.0002
0.07202,3.48102e-07,0.0004
0.0795,5.23951e-07,0.0003
0.0825,1.98715e-07,0.0005
0.08652,2.57134e-07,0.0004
0.09804,6.85915e-07,0.0003
0.1111,4.41765e-07,0.0003
0.1168,1.63777e-07,0.0006
0.1228,1.67713e-07,0.0006
0.1291,1.7142e-07,0.0006
0.1357,1.74436e-07,0.0006
0.1426,1.77553e-07,0.0005
0.15,1.85241e-07,0.0005
0.1576,1.84782e-07,0.0005
0.1657,1.91157e-07,0.0005
0.1742,1.94899e-07,0.0005
0.1832,2.00331e-07,0.0005
0.1925,2.0102e-07,0.0005
0.2024,2.0778e-07,0.0005
0.2128,2.11713e-07,0.0005
0.2237,2.15247e-07,0.0005
0.2352,2.2048e-07,0.0005
0.2472,2.23402e-07,0.0005
0.2732,4.5895e-07,0.0003
0.2872,2.33174e-07,0.0005
0.2945,1.18008e-07,0.0007
0.2972,4.30856e-08,0.0011
0.2985,2.06145e-08,0.0016
0.302,5.51847e-08,0.001
0.3337,4.77447e-07,0.0003
0.3688,4.86786e-07,0.0003
0.3877,2.45742e-07,0.0005
0.4076,2.47315e-07,0.0004
0.4505,4.96557e-07,0.0003
0.4979,4.95607e-07,0.0003
0.5234,2.45844e-07,0.0004
0.5502,2.44582e-07,0.0004
0.5784,2.43891e-07,0.0004
0.6081,2.43624e-07,0.0004
0.6393,2.42889e-07,0.0004
0.6721,2.42941e-07,0.0004
0.7065,2.42703e-07,0.0004
0.7427,2.4391e-07,0.0004
0.7808,2.45713e-07,0.0004
0.8209,2.47444e-07,0.0004
0.8629,2.48455e-07,0.0004
0.9072,2.51534e-07,0.0004
0.9617,2.95825e-07,0.0004
1.003,2.06578e-07,0.0004
1.108,2.32779e-07,0.0005
1.165,1.16634e-07,0.0007
1.225,1.16307e-07,0.0007
1.287,1.13769e-07,0.0007
1.353,1.14927e-07,0.0007
1.423,1.15404e-07,0.0007
1.496,1.14054e-07,0.0007
1.572,1.13113e-07,0.0007
1.653,1.14705e-07,0.0007
1.738,1.14773e-07,0.0007
1.827,1.15069e-07,0.0007
1.921,1.16732e-07,0.0007
2.019,1.16925e-07,0.0006
2.122,1.18735e-07,0.0006
2.231,1.21563e-07,0.0006
2.307,8.26172e-08,0.0008
2.346,4.1863e-08,0.0011
2.365,2.03142e-08,0.0015
2.385,2.12274e-08,0.0015
2.466,8.50471e-08,0.0007
2.592,1.29889e-07,0.0006
2.725,1.34532e-07,0.0006
2.865,1.38834e-07,0.0006
3.012,1.4317e-07,0.0006
3.166,1.47064e-07,0.0006
3.329,1.52596e-07,0.0005
3.679,3.18406e-07,0.0004
4.066,3.38594e-07,0.0004
4.493,3.64783e-07,0.0003
4.724,1.95685e-07,0.0005
4.966,2.04885e-07,0.0005
5.22,2.15708e-07,0.0004
5.488,2.29387e-07,0.0004
5.77,2.43996e-07,0.0004
6.065,2.5868e-07,0.0004
6.376,2.77679e-07,0.0004
6.592,1.95945e-07,0.0005
6.703,1.01611e-07,0.0006
7.047,3.20093e-07,0.0004
7.408,3.43351e-07,0.0003
7.788,3.70247e-07,0.0003
8.187,3.98187e-07,0.0003
8.607,4.28924e-07,0.0003
9.048,4.59285e-07,0.0003
9.512,4.9299e-07,0.0003
10.0,5.3023e-07,0.0003
10.51,7.8399e-07,0.0002
11.05,8.02994e-07,0.0002
11.62,8.15163e-07,0.0002
12.21,8.0531e-07,0.0002
12.52,4.05722e-07,0.0003
12.84,4.05586e-07,0.0003
13.5,7.89324e-07,0.0002
13.84,3.79685e-07,0.0003
14.19,1.71835e-07,0.0004
14.55,0.0,0.0
14.92,0.0,0.0
15.68,0.0,0.0
16.49,0.0,0.0
16.9,0.0,0.0
17.33,0.0,0.0
19.64,0.0,0.0
