Energy,Value,Error
1e-07,0.0,0.0
4.14e-07,1.0418768132292047e-12,0.1417
5.316e-07,1.1163587877611e-11,0.12
6.826e-07,3.0413685539100866e-11,0.0825
8.764e-07,7.61131134454091e-11,0.0522
1.125e-06,1.446725175840764e-10,0.0372
1.445e-06,2.091350487229213e-10,0.034
1.855e-06,2.6020939867032504e-10,0.0296
2.382e-06,3.4217806024761377e-10,0.025
3.059e-06,4.440298550117607e-10,0.0237
3.928e-06,6.017021310507232e-10,0.0218
5.043e-06,7.71762993433958e-10,0.0195
6.476e-06,9.79600743259884e-10,0.0167
8.315e-06,1.2928127952449478e-09,0.0149
1.068e-05,1.6636256525427632e-09,0.0123
1.371e-05,2.113791300204179e-09,0.0116
1.76e-05,2.750893316503099e-09,0.0099
2.26e-05,3.5457486072314256e-09,0.0087
2.902e-05,4.616587377458627e-09,0.0083
3.727e-05,5.820742706240306e-09,0.0067
4.785e-05,7.597133557679069e-09,0.0061
6.144e-05,9.73823066118072e-09,0.0053
7.889e-05,1.2460329537458986e-08,0.0048
0.0001013,1.6130339565419376e-08,0.0043
0.0001301,2.0606475700419745e-08,0.0037
0.000167,2.6405297479368472e-08,0.0034
0.0002145,3.373944333706737e-08,0.0029
0.0002754,4.312588903549458e-08,0.0027
0.0003536,5.4998415847692055e-08,0.0023
0.000454,7.196710112642167e-08,0.002
0.0005829,9.190638096061227e-08,0.0018
0.0007485,1.1743190249382105e-07,0.0016
0.0009611,1.501296414545317e-07,0.0014
0.001234,1.9081711908328869e-07,0.0012
0.001585,2.4116355187615853e-07,0.0011
0.002035,3.0265044531683013e-07,0.0009
0.002249,3.557590950238514e-07,0.0014
0.002485,4.0040992691372024e-07,0.0013
0.002613,4.489836576053467e-07,0.0018
0.002747,4.7679263093582644e-07,0.0017
0.003035,5.358758167003523e-07,0.0011
0.003355,5.321061047288054e-07,0.0012
0.003707,6.151427311033416e-07,0.0011
0.004307,6.99066267410248e-07,0.0008
0.005531,8.719769487196508e-07,0.0006
0.007102,1.1182250956844916e-06,0.0005
0.009119,1.4962374683163225e-06,0.0004
0.01059,1.9307588058486234e-06,0.0005
0.01171,2.345030565069192e-06,0.0005
0.01503,3.217387135067055e-06,0.0003
0.0193,4.9360367131154755e-06,0.0002
0.02187,6.686033601364382e-06,0.0003
0.02358,7.753802737815796e-06,0.0003
0.02418,6.625077834240749e-06,0.0006
0.02479,5.12629174131809e-06,0.0008
0.02606,5.2786535272301105e-06,0.0005
0.027,5.4572426666246635e-06,0.0006
0.0285,5.645657254588977e-06,0.0005
0.03183,5.991901516953477e-06,0.0003
0.03431,6.34082525941176e-06,0.0004
0.04087,6.740705132813785e-06,0.0002
0.04631,7.091281141509353e-06,0.0003
0.05248,7.178217623579043e-06,0.0003
0.05656,7.077412459703827e-06,0.0004
0.06738,6.638875286571432e-06,0.0003
0.07202,5.965212104857585e-06,0.0004
0.0795,5.384626718538998e-06,0.0004
0.0825,4.917271781914251e-06,0.0006
0.08652,4.683661404255452e-06,0.0006
0.09804,4.446153509022589e-06,0.0004
0.1111,4.6780005157966694e-06,0.0004
0.1168,5.095820583716126e-06,0.0006
0.1228,5.351944197910189e-06,0.0005
0.1291,5.615439049820655e-06,0.0005
0.1357,5.886107156310275e-06,0.0005
0.1426,6.176993842001241e-06,0.0005
0.15,6.462590572508175e-06,0.0005
0.1576,6.750506577608976e-06,0.0005
0.1657,7.042933454390946e-06,0.0005
0.1742,7.333692621420214e-06,0.0005
0.1832,7.630266423505333e-06,0.0004
0.1925,7.928154744756325e-06,0.0004
0.2024,8.23128176561982e-06,0.0004
0.2128,8.562906197920209e-06,0.0004
0.2237,8.928012506462445e-06,0.0004
0.2352,9.28501442636953e-06,0.0004
0.2472,9.647315852228977e-06,0.0004
0.2732,1.021214620684997e-05,0.0003
0.2872,1.0774109657268294e-05,0.0004
0.2945,1.1040166065436233e-05,0.0005
0.2972,1.1169026996708916e-05,0.0009
0.2985,1.1231768200429482e-05,0.0013
0.302,1.1296220725100966e-05,0.0008
0.3337,1.178055062116714e-05,0.0003
0.3688,1.2680864863996207e-05,0.0003
0.3877,1.3374237728722815e-05,0.0003
0.4076,1.3842483688209369e-05,0.0003
0.4505,1.4511184495775559e-05,0.0002
0.4979,1.5404756844932355e-05,0.0002
0.5234,1.611540727669918e-05,0.0003
0.5502,1.660161708750142e-05,0.0003
0.5784,1.7103013730005514e-05,0.0003
0.6081,1.7593637084192088e-05,0.0003
0.6393,1.7934750170868832e-05,0.0003
0.6721,1.822357901311504e-05,0.0003
0.7065,1.8459248223478922e-05,0.0003
0.7427,1.8575059304204025e-05,0.0003
0.7808,1.8560856375038427e-05,0.0003
0.8209,1.8259637690053868e-05,0.0003
0.8629,1.7495442101219214e-05,0.0003
0.9072,1.6360238498274646e-05,0.0003
0.9617,1.470983215971579e-05,0.0003
1.003,1.3012888265547442e-05,0.0004
1.108,1.2019958078694414e-05,0.0002
1.165,1.1499706267082135e-05,0.0003
1.225,1.1194916778167523e-05,0.0004
1.287,1.0884108298384767e-05,0.0004
1.353,1.0516928151299813e-05,0.0004
1.423,1.0044927981302308e-05,0.0004
1.496,9.464063324146915e-06,0.0004
1.572,8.50192875434218e-06,0.0004
1.653,7.589695132936865e-06,0.0004
1.738,6.921994300207991e-06,0.0004
1.827,6.3772807800416055e-06,0.0004
1.921,5.944357093841586e-06,0.0005
2.019,5.410172349604623e-06,0.0005
2.122,4.828093419430413e-06,0.0005
2.231,4.060200564474381e-06,0.0005
2.307,3.6481511571553647e-06,0.0007
2.346,3.4594304505098672e-06,0.001
2.365,3.3643672029503605e-06,0.0015
2.385,3.3255384724860868e-06,0.0014
2.466,3.218848357056456e-06,0.0007
2.592,3.0352758382586112e-06,0.0006
2.725,2.8432421950973207e-06,0.0006
2.865,2.6387665805969803e-06,0.0007
3.012,2.4487988350960335e-06,0.0007
3.166,2.259937582280102e-06,0.0007
3.329,2.125052409024494e-06,0.0007
3.679,1.96820980001576e-06,0.0005
4.066,1.7654991616375995e-06,0.0005
4.493,1.6605796191249326e-06,0.0005
4.724,1.6457775710571671e-06,0.0008
4.966,1.6587131528198882e-06,0.0008
5.22,1.6846396657135987e-06,0.0008
5.488,1.7178856062597253e-06,0.0007
5.77,1.7538410353853912e-06,0.0007
6.065,1.7916403771268573e-06,0.0007
6.376,1.833245377887013e-06,0.0007
6.592,1.8605858147856692e-06,0.0008
6.703,1.8740963088711079e-06,0.0012
7.047,1.9140461859876768e-06,0.0007
7.408,1.9669504508968364e-06,0.0007
7.788,2.0217061523222396e-06,0.0006
8.187,2.1052792587464206e-06,0.0006
8.607,2.1794266505576333e-06,0.0006
9.048,2.243719878221355e-06,0.0006
9.512,2.309838603087614e-06,0.0006
10.0,2.651939319102412e-06,0.0005
10.51,5.230178106504678e-06,0.0004
11.05,5.484175936260717e-06,0.0004
11.62,5.736686967636544e-06,0.0004
12.21,6.010555336319058e-06,0.0003
12.52,6.243359757162484e-06,0.0005
12.84,6.413045102791447e-06,0.0005
13.5,6.681498145407109e-06,0.0003
13.84,6.69948242450003e-06,0.0005
14.19,2.562613665053172e-06,0.0007
14.55,0.0,0.0
14.92,0.0,0.0
15.68,0.0,0.0
16.49,0.0,0.0
16.9,0.0,0.0
17.33,0.0,0.0
19.64,0.0,0.0
