Energy,Value,Error
1e-07,7.851667844259811e-12,0.0259
4.14e-07,8.717207516222299e-10,0.0052
5.316e-07,2.65595865377465e-09,0.0072
6.826e-07,3.6510693635985094e-09,0.0071
8.764e-07,4.701825491624196e-09,0.0058
1.125e-06,5.9009103519809484e-09,0.0052
1.445e-06,7.254451898300936e-09,0.0046
1.855e-06,8.677837054122253e-09,0.004
2.382e-06,1.012742057758512e-08,0.0037
3.059e-06,1.1659196679111038e-08,0.0036
3.928e-06,1.3106661025330845e-08,0.0034
5.043e-06,1.4590783283074958e-08,0.0035
6.476e-06,1.589848024236605e-08,0.0034
8.315e-06,1.728837913466438e-08,0.0035
1.068e-05,1.860528138072871e-08,0.0035
1.371e-05,1.92402355161645e-08,0.0036
1.76e-05,2.0189499077953464e-08,0.0036
2.26e-05,2.0869822202808133e-08,0.0035
2.902e-05,2.132514537698235e-08,0.0034
3.727e-05,2.161744633561823e-08,0.0035
4.785e-05,2.1813700780245646e-08,0.0035
6.144e-05,2.1753672675514482e-08,0.0037
7.889e-05,2.1701253931536555e-08,0.0041
0.0001013,2.1173295395435318e-08,0.0039
0.0001301,2.0797429971769946e-08,0.004
0.000167,2.0367100425806174e-08,0.004
0.0002145,1.9667785744313744e-08,0.004
0.0002754,1.9182173607428957e-08,0.0041
0.0003536,1.8472624530208785e-08,0.0039
0.000454,1.7944922325315783e-08,0.0039
0.0005829,1.7654799206641582e-08,0.0043
0.0007485,1.791513862499854e-08,0.0045
0.0009611,2.0208653304838212e-08,0.004
0.001234,2.0654703629600916e-08,0.004
0.001585,2.2462295420843176e-08,0.0041
0.002035,2.6282913448645572e-08,0.0034
0.002249,3.2182065165742756e-08,0.0051
0.002485,3.8461828860352575e-08,0.0044
0.002613,4.5296961501052046e-08,0.0054
0.002747,5.8243261434913866e-08,0.0049
0.003035,7.790373959003272e-08,0.0029
0.003355,1.4249950825702265e-07,0.0019
0.003707,6.863496855519321e-07,0.0006
0.004307,0.00010645674123630833,0.0
0.005531,2.8712011433816194e-06,0.0003
0.007102,3.0791358877494935e-08,0.0048
0.009119,2.0772353158393152e-07,0.0015
0.01059,8.657973304517127e-06,0.0002
0.01171,2.252792212090071e-05,0.0001
0.01503,2.7367277435154833e-05,0.0001
0.0193,3.4284477929910226e-05,0.0001
0.02187,1.0302554905213798e-05,0.0002
0.02358,5.276698340647857e-07,0.0017
0.02418,5.416932798473836e-07,0.0028
0.02479,5.492303488897382e-07,0.0033
0.02606,5.593998072828267e-07,0.002
0.027,5.728779849763797e-07,0.0024
0.0285,5.869545216936598e-07,0.0018
0.03183,6.141894520873373e-07,0.0013
0.03431,6.37517261245242e-07,0.0015
0.04087,6.718528564436868e-07,0.001
0.04631,7.199714432337026e-07,0.0011
0.05248,7.727875240653717e-07,0.0011
0.05656,8.201242275176882e-07,0.0013
0.06738,8.826069091131018e-07,0.0008
0.07202,9.275324679796984e-07,0.0014
0.0795,9.66918745177543e-07,0.0011
0.0825,9.949847380524024e-07,0.0017
0.08652,1.020892150121672e-06,0.0015
0.09804,1.0679843624734334e-06,0.0009
0.1111,1.1331481639421733e-06,0.0009
0.1168,1.1670003964523308e-06,0.0013
0.1228,1.1905450772606695e-06,0.0014
0.1291,1.2144184961924113e-06,0.0013
0.1357,1.2415304366900555e-06,0.0013
0.1426,1.2705440809932511e-06,0.0013
0.15,1.3008732257252297e-06,0.0013
0.1576,1.3305645976786538e-06,0.0013
0.1657,1.3635296985394485e-06,0.0012
0.1742,1.40049583109148e-06,0.0012
0.1832,1.4420026354903538e-06,0.0012
0.1925,1.4816115812254002e-06,0.0012
0.2024,1.5256077768918625e-06,0.0011
0.2128,1.556394916214528e-06,0.0011
0.2237,1.579419146784213e-06,0.0011
0.2352,1.6065238716806046e-06,0.0011
0.2472,1.6406093931515358e-06,0.0011
0.2732,1.6867420128686425e-06,0.0008
0.2872,1.7361761760551785e-06,0.0011
0.2945,1.7575899754955493e-06,0.0015
0.2972,1.7707266616196625e-06,0.0025
0.2985,1.7841782376317048e-06,0.0035
0.302,1.7882172789014335e-06,0.0022
0.3337,1.8097012807473105e-06,0.0007
0.3688,1.858644993828978e-06,0.0007
0.3877,1.890156127526411e-06,0.001
0.4076,1.912890606884982e-06,0.001
0.4505,1.925587895812075e-06,0.0007
0.4979,1.930665017793217e-06,0.0007
0.5234,1.9265162619855094e-06,0.001
0.5502,1.9157555927920747e-06,0.001
0.5784,1.9011311165209821e-06,0.001
0.6081,1.8809086210297504e-06,0.001
0.6393,1.8561417949997287e-06,0.001
0.6721,1.8196097322078948e-06,0.001
0.7065,1.7782291791651308e-06,0.001
0.7427,1.7305852206708695e-06,0.0011
0.7808,1.673099865816457e-06,0.001
0.8209,1.6130400891647035e-06,0.0011
0.8629,1.5403333704123323e-06,0.0011
0.9072,1.4634851254246466e-06,0.0011
0.9617,1.3708317215721418e-06,0.001
1.003,1.2859849741821137e-06,0.0013
1.108,1.1428260997993926e-06,0.0009
1.165,9.833029589769287e-07,0.0013
1.225,8.74494474721197e-07,0.0014
1.287,7.601753119319902e-07,0.0015
1.353,6.51292263206897e-07,0.0016
1.423,5.465538616032263e-07,0.0017
1.496,4.5455544499708135e-07,0.0018
1.572,3.6473478780350616e-07,0.0021
1.653,3.1058577770029424e-07,0.0022
1.738,2.7382771359221603e-07,0.0024
1.827,2.441878017239582e-07,0.0025
1.921,2.179702576219971e-07,0.0027
2.019,1.937025034153143e-07,0.0028
2.122,1.7292163369151845e-07,0.0029
2.231,1.5476491396840573e-07,0.0031
2.307,1.394492540251437e-07,0.004
2.346,1.3100512974099918e-07,0.0057
2.365,1.2773683266693198e-07,0.0084
2.385,1.2405026691583432e-07,0.0087
2.466,1.1802194462029455e-07,0.0043
2.592,1.0174249425989117e-07,0.0038
2.725,8.804734006616849e-08,0.0045
2.865,7.112426235588593e-08,0.0044
3.012,5.797270629521225e-08,0.0049
3.166,4.591288478227661e-08,0.0055
3.329,3.796924703339038e-08,0.0062
3.679,2.737618181738733e-08,0.005
4.066,1.7904444871122252e-08,0.0065
4.493,1.3289884251210378e-08,0.0072
4.724,1.1365791386446644e-08,0.0104
4.966,1.070043956962045e-08,0.0108
5.22,9.997330777079116e-09,0.011
5.488,9.043314466470141e-09,0.0114
5.77,8.667225840012836e-09,0.0124
6.065,8.456401552104415e-09,0.0115
6.376,8.66521101036814e-09,0.0121
6.592,9.23305242597279e-09,0.0137
6.703,9.50396742912961e-09,0.0184
7.047,9.949166193715003e-09,0.0111
7.408,1.0326170101822301e-08,0.0104
7.788,1.0953012332401157e-08,0.0095
8.187,1.1810715313710799e-08,0.0094
8.607,1.350943493700053e-08,0.0087
9.048,1.551237486600081e-08,0.008
9.512,1.7421909073915016e-08,0.0074
10.0,2.4269385208213292e-08,0.0062
10.51,3.73394026919411e-08,0.0048
11.05,4.014410797706484e-08,0.0048
11.62,4.457115897593845e-08,0.0044
12.21,4.97194119500247e-08,0.0042
12.52,5.140579186003595e-08,0.0056
12.84,5.2543131069802544e-08,0.006
13.5,5.535429270973516e-08,0.0038
13.84,5.101461400429727e-08,0.0055
14.19,9.9409234457876e-09,0.0116
14.55,0.0,0.0
14.92,0.0,0.0
15.68,0.0,0.0
16.49,0.0,0.0
16.9,0.0,0.0
17.33,0.0,0.0
19.64,0.0,0.0
