Energy,Value,Error
1e-07,4.92018e-12,0.0698
4.14e-07,6.94995e-11,0.0247
5.316e-07,4.12746e-11,0.0339
6.826e-07,5.77353e-11,0.0295
8.764e-07,8.52638e-11,0.0264
1.125e-06,1.15304e-10,0.0234
1.445e-06,1.58366e-10,0.0187
1.855e-06,1.99838e-10,0.0183
2.382e-06,2.61639e-10,0.0154
3.059e-06,3.4158e-10,0.0131
3.928e-06,4.48366e-10,0.0117
5.043e-06,5.79662e-10,0.0107
6.476e-06,7.60702e-10,0.0098
8.315e-06,9.79434e-10,0.0087
1.068e-05,1.27042e-09,0.0081
1.371e-05,1.60755e-09,0.0063
1.76e-05,2.06247e-09,0.0056
2.26e-05,2.68651e-09,0.0057
2.902e-05,3.41768e-09,0.0045
3.727e-05,4.39838e-09,0.004
4.785e-05,5.57337e-09,0.0036
6.144e-05,7.16414e-09,0.0031
7.889e-05,9.07245e-09,0.0028
0.0001013,1.15315e-08,0.0025
0.0001301,1.4522e-08,0.0022
0.000167,1.83487e-08,0.002
0.0002145,2.323e-08,0.0018
0.0002754,2.91852e-08,0.0016
0.0003536,3.65588e-08,0.0014
0.000454,4.57231e-08,0.0013
0.0005829,5.69514e-08,0.0011
0.0007485,7.08055e-08,0.001
0.0009611,8.74301e-08,0.0009
0.001234,1.07787e-07,0.0008
0.001585,1.32328e-07,0.0007
0.002035,1.61082e-07,0.0007
0.002249,7.37323e-08,0.001
0.002485,7.91887e-08,0.0009
0.002613,4.21341e-08,0.0013
0.002747,4.36472e-08,0.0013
0.003035,9.19322e-08,0.0009
0.003355,9.94247e-08,0.0009
0.003707,1.06275e-07,0.0008
0.004307,1.74437e-07,0.0006
0.005531,3.33038e-07,0.0005
0.007102,3.90732e-07,0.0004
0.009119,4.53945e-07,0.0004
0.01059,3.03457e-07,0.0005
0.01171,2.17774e-07,0.0006
0.01503,5.88104e-07,0.0003
0.0193,6.56767e-07,0.0003
0.02187,3.5268e-07,0.0004
0.02358,2.20219e-07,0.0006
0.02418,7.47368e-08,0.001
0.02479,7.48407e-08,0.001
0.02606,1.51802e-07,0.0007
0.027,1.0936e-07,0.0008
0.0285,1.69603e-07,0.0006
0.03183,3.57613e-07,0.0004
0.03431,2.53673e-07,0.0005
0.04087,6.48171e-07,0.0003
0.04631,5.66243e-07,0.0003
0.05248,1.27272e-06,0.0002
0.05656,1.41395e-06,0.0002
0.06738,2.92846e-07,0.0005
0.07202,1.89381e-07,0.0006
0.0795,3.05322e-07,0.0004
0.0825,1.14117e-07,0.0007
0.08652,1.43592e-07,0.0006
0.09804,3.25944e-07,0.0004
0.1111,1.56263e-07,0.0006
0.1168,7.29379e-08,0.0008
0.1228,1.02179e-07,0.0007
0.1291,1.52167e-07,0.0006
0.1357,4.24773e-07,0.0003
0.1426,1.97055e-06,0.0001
0.15,4.56363e-06,0.0001
0.1576,4.01244e-06,0.0001
0.1657,1.12539e-06,0.0002
0.1742,1.44546e-07,0.0007
0.1832,3.48815e-08,0.0016
0.1925,2.26024e-08,0.0021
0.2024,2.83737e-08,0.0019
0.2128,4.02231e-08,0.0016
0.2237,5.52559e-08,0.0013
0.2352,7.26132e-08,0.0011
0.2472,8.98716e-08,0.001
0.2732,2.34016e-07,0.0006
0.2872,1.43588e-07,0.0007
0.2945,7.87943e-08,0.001
0.2972,2.96293e-08,0.0016
0.2985,1.43961e-08,0.0023
0.302,3.8903e-08,0.0014
0.3337,3.71148e-07,0.0005
0.3688,4.31327e-07,0.0004
0.3877,2.37396e-07,0.0006
0.4076,2.46319e-07,0.0005
0.4505,5.02732e-07,0.0004
0.4979,5.07878e-07,0.0004
0.5234,2.06847e-07,0.0006
0.5502,2.1813e-07,0.0006
0.5784,1.57985e-07,0.0007
0.6081,3.18237e-07,0.0005
0.6393,3.39984e-07,0.0004
0.6721,3.19721e-07,0.0004
0.7065,3.09586e-07,0.0004
0.7427,2.5216e-07,0.0005
0.7808,2.19577e-07,0.0005
0.8209,1.47317e-07,0.0007
0.8629,1.50611e-07,0.0007
0.9072,2.37519e-07,0.0005
0.9617,1.63375e-07,0.0007
1.003,1.33429e-07,0.0007
1.108,5.60465e-07,0.0003
1.165,3.85293e-07,0.0004
1.225,2.62821e-07,0.0005
1.287,2.92575e-07,0.0004
1.353,2.11141e-07,0.0005
1.423,2.12506e-07,0.0005
1.496,1.63627e-07,0.0006
1.572,1.40554e-07,0.0006
1.653,9.39729e-08,0.0009
1.738,1.68389e-07,0.0006
1.827,2.15763e-07,0.0005
1.921,9.99915e-08,0.0008
2.019,1.11888e-07,0.0007
2.122,1.52986e-07,0.0006
2.231,1.29427e-07,0.0007
2.307,9.13079e-08,0.0008
2.346,4.46032e-08,0.0011
2.365,2.25771e-08,0.0015
2.385,1.83059e-08,0.0018
2.466,1.02075e-07,0.0007
2.592,9.80422e-08,0.0008
2.725,1.09694e-07,0.0007
2.865,1.02403e-07,0.0007
3.012,1.16375e-07,0.0006
3.166,8.84108e-08,0.001
3.329,1.19207e-07,0.0006
3.679,3.05356e-07,0.0004
4.066,2.14917e-07,0.0004
4.493,1.64346e-07,0.0005
4.724,5.95055e-08,0.0008
4.966,5.04953e-08,0.0009
5.22,4.72884e-08,0.0009
5.488,7.07247e-08,0.0007
5.77,4.36197e-08,0.0009
6.065,4.51112e-08,0.0008
6.376,4.47569e-08,0.0008
6.592,3.27523e-08,0.0009
6.703,1.5514e-08,0.0013
7.047,3.7703e-08,0.0009
7.408,3.67115e-08,0.0009
7.788,3.27872e-08,0.0009
8.187,3.73777e-08,0.0008
8.607,4.61854e-08,0.0007
9.048,4.82448e-08,0.0007
9.512,4.95307e-08,0.0007
10.0,5.77519e-08,0.0007
10.51,8.2206e-08,0.0006
11.05,9.0427e-08,0.0005
11.62,9.4375e-08,0.0005
12.21,8.76546e-08,0.0005
12.52,4.18841e-08,0.0008
12.84,4.31022e-08,0.0007
13.5,8.12284e-08,0.0005
13.84,3.72324e-08,0.0008
14.19,1.04902e-08,0.0016
14.55,0.0,0.0
14.92,0.0,0.0
15.68,0.0,0.0
16.49,0.0,0.0
16.9,0.0,0.0
17.33,0.0,0.0
19.64,0.0,0.0
