Energy,Value,Error
1e-07,5.4044763446659076e-12,0.0367
4.14e-07,1.7609540490076e-10,0.0165
5.316e-07,4.406673110223722e-10,0.0238
6.826e-07,6.118926544213551e-10,0.0208
8.764e-07,7.606269601534701e-10,0.0186
1.125e-06,1.0034210626689737e-09,0.0171
1.445e-06,1.2886101786311676e-09,0.0152
1.855e-06,1.672746966528354e-09,0.0136
2.382e-06,2.109265423949436e-09,0.0139
3.059e-06,2.6436912256569328e-09,0.011
3.928e-06,3.353436258902649e-09,0.0138
5.043e-06,4.1568290373419e-09,0.0086
6.476e-06,5.304957853642242e-09,0.0076
8.315e-06,6.645314370589482e-09,0.0071
1.068e-05,8.483781712152936e-09,0.0064
1.371e-05,1.0398487846181302e-08,0.0056
1.76e-05,1.2917387882741855e-08,0.0049
2.26e-05,1.5992457267860526e-08,0.0045
2.902e-05,2.0096039129232107e-08,0.0041
3.727e-05,2.5055168496826215e-08,0.0039
4.785e-05,3.091266077059966e-08,0.0034
6.144e-05,3.805140647928566e-08,0.003
7.889e-05,4.663483334815789e-08,0.0027
0.0001013,5.695432484872631e-08,0.0025
0.0001301,6.94029653707265e-08,0.0023
0.000167,8.403566072057222e-08,0.002
0.0002145,1.01410247484361e-07,0.0018
0.0002754,1.219387333439452e-07,0.0017
0.0003536,1.4556151905438136e-07,0.0015
0.000454,1.721175958317124e-07,0.0014
0.0005829,2.0166418526901248e-07,0.0013
0.0007485,2.337952424598841e-07,0.0012
0.0009611,2.68834995215157e-07,0.0011
0.001234,3.03711233043031e-07,0.001
0.001585,3.371433609728389e-07,0.001
0.002035,3.681980723635398e-07,0.0009
0.002249,3.867162359097888e-07,0.0014
0.002485,3.8523359929793235e-07,0.0014
0.002613,4.523105980768978e-07,0.0018
0.002747,4.638593263851402e-07,0.0018
0.003035,4.7365841968202246e-07,0.0013
0.003355,4.853135686764144e-07,0.0013
0.003707,4.981530044952057e-07,0.0013
0.004307,5.219369948232875e-07,0.001
0.005531,6.052604673004534e-07,0.0007
0.007102,2.3029961142023243e-06,0.0003
0.009119,2.9821182619752706e-06,0.0003
0.01059,3.815606548437427e-05,0.0001
0.01171,2.681875122956061e-06,0.0006
0.01503,5.2133565579348124e-06,0.0003
0.0193,7.639701443961533e-06,0.0002
0.02187,9.275443144613881e-06,0.0003
0.02358,1.0078734787897896e-05,0.0003
0.02418,1.144082346302407e-05,0.0005
0.02479,1.4588171042869496e-05,0.0005
0.02606,3.204485036513153e-05,0.0002
0.027,2.586802276967767e-05,0.0003
0.0285,2.7436401670886777e-05,0.0002
0.03183,2.9392837183231104e-05,0.0001
0.03431,1.2519856759195827e-05,0.0003
0.04087,5.84386870394211e-06,0.0003
0.04631,6.0918623032674975e-06,0.0003
0.05248,6.34827044052737e-06,0.0003
0.05656,6.593359306751532e-06,0.0004
0.06738,6.915259438127074e-06,0.0003
0.07202,7.197530381966226e-06,0.0004
0.0795,7.409984404030147e-06,0.0003
0.0825,7.591640007035254e-06,0.0006
0.08652,7.711848723608232e-06,0.0005
0.09804,7.96490670328591e-06,0.0003
0.1111,8.322249023620576e-06,0.0003
0.1168,8.562436036976594e-06,0.0005
0.1228,8.686478919353373e-06,0.0005
0.1291,8.814921306456693e-06,0.0004
0.1357,8.953821607481176e-06,0.0005
0.1426,9.091004195862943e-06,0.0004
0.15,9.239246839945362e-06,0.0004
0.1576,9.355409034269006e-06,0.0004
0.1657,9.488006552061043e-06,0.0004
0.1742,9.602072080868356e-06,0.0004
0.1832,9.74008858901401e-06,0.0004
0.1925,9.868753704577954e-06,0.0004
0.2024,9.994519680155772e-06,0.0004
0.2128,1.0120777959001763e-05,0.0004
0.2237,1.0210114835651487e-05,0.0004
0.2352,1.0327117714610586e-05,0.0004
0.2472,1.0432139310079375e-05,0.0004
0.2732,1.057952268699221e-05,0.0003
0.2872,1.0699912127382215e-05,0.0004
0.2945,1.0757418930484765e-05,0.0006
0.2972,1.0782266071873894e-05,0.0009
0.2985,1.0808798960351214e-05,0.0014
0.302,1.0802272175688892e-05,0.0008
0.3337,1.0875078833960039e-05,0.0003
0.3688,1.0954573847493855e-05,0.0003
0.3877,1.0955542204503342e-05,0.0004
0.4076,1.0899788675732715e-05,0.0004
0.4505,1.0666044372008566e-05,0.0003
0.4979,1.0198900439587657e-05,0.0003
0.5234,9.693386083492032e-06,0.0004
0.5502,9.259498381859933e-06,0.0004
0.5784,8.739987848575053e-06,0.0004
0.6081,8.141823628389535e-06,0.0005
0.6393,7.489654288578399e-06,0.0005
0.6721,6.726618564837508e-06,0.0005
0.7065,5.8072288100262624e-06,0.0005
0.7427,5.198343747607214e-06,0.0006
0.7808,4.744173287583554e-06,0.0006
0.8209,4.356332590868187e-06,0.0006
0.8629,4.0180962808953525e-06,0.0006
0.9072,3.7198294333800377e-06,0.0006
0.9617,3.437406762576151e-06,0.0006
1.003,3.1993731965582227e-06,0.0008
1.108,2.959931751823962e-06,0.0005
1.165,2.735121521713071e-06,0.0008
1.225,2.6074399375267183e-06,0.0008
1.287,2.484754617843254e-06,0.0008
1.353,2.3702260176563718e-06,0.0008
1.423,2.253396264779415e-06,0.0008
1.496,2.1082379205130173e-06,0.0008
1.572,1.9567272684645184e-06,0.0009
1.653,1.829754823324238e-06,0.0009
1.738,1.7101837599346166e-06,0.0009
1.827,1.5128077885857119e-06,0.001
1.921,1.334847330300841e-06,0.001
2.019,1.1973139836494561e-06,0.0011
2.122,1.0955730395426577e-06,0.0011
2.231,1.0071055803987933e-06,0.0012
2.307,9.489533557989824e-07,0.0015
2.346,9.216780617821405e-07,0.0021
2.365,9.029066041269126e-07,0.0031
2.385,8.907646109610916e-07,0.0031
2.466,8.673350738859289e-07,0.0015
2.592,8.214940794736886e-07,0.0013
2.725,7.656841319059248e-07,0.0013
2.865,7.06204691568854e-07,0.0014
3.012,6.493949581210737e-07,0.0014
3.166,5.955200546702091e-07,0.0015
3.329,5.358126314284567e-07,0.0015
3.679,4.6439288038601166e-07,0.0011
4.066,3.926904134154648e-07,0.0012
4.493,3.527536277999398e-07,0.0013
4.724,3.3876751025431775e-07,0.0018
4.966,3.377483806532418e-07,0.0018
5.22,3.3814518846318526e-07,0.0019
5.488,3.418094718201565e-07,0.0017
5.77,3.500146376520534e-07,0.0017
6.065,3.6147834105787506e-07,0.0017
6.376,3.741741125093449e-07,0.0017
6.592,3.8326500962839396e-07,0.002
6.703,3.8935239524975845e-07,0.0028
7.047,4.0337838161141004e-07,0.0016
7.408,4.1956020980897983e-07,0.0015
7.788,4.354585492101077e-07,0.0015
8.187,4.533774834618493e-07,0.0014
8.607,4.783393051752171e-07,0.0014
9.048,5.037012437605068e-07,0.0013
9.512,5.569059344026235e-07,0.0013
10.0,6.857497457569693e-07,0.0011
10.51,1.2048729298867398e-06,0.0008
11.05,1.2728856673939863e-06,0.0008
11.62,1.3463420186533268e-06,0.0008
12.21,1.4392902363274162e-06,0.0007
12.52,1.5009526005950056e-06,0.001
12.84,1.5422261653727502e-06,0.001
13.5,1.5492398883034207e-06,0.0007
13.84,1.473931965732953e-06,0.001
14.19,4.80393213570634e-07,0.0017
14.55,0.0,0.0
14.92,0.0,0.0
15.68,0.0,0.0
16.49,0.0,0.0
16.9,0.0,0.0
17.33,0.0,0.0
19.64,0.0,0.0
