Energy,Value,Error
1e-07,0.0,0.0
4.14e-07,2.62068e-13,0.2706
5.316e-07,4.08103e-13,0.261
6.826e-07,1.94589e-12,0.1337
8.764e-07,8.51311e-12,0.0662
1.125e-06,2.7349e-11,0.0444
1.445e-06,3.82525e-11,0.0347
1.855e-06,5.01707e-11,0.0328
2.382e-06,6.76826e-11,0.0268
3.059e-06,8.41583e-11,0.0263
3.928e-06,1.14613e-10,0.0219
5.043e-06,1.50414e-10,0.0191
6.476e-06,1.89447e-10,0.0171
8.315e-06,2.48622e-10,0.0158
1.068e-05,3.18746e-10,0.0136
1.371e-05,4.19507e-10,0.0124
1.76e-05,5.3384e-10,0.0105
2.26e-05,6.80154e-10,0.0093
2.902e-05,9.00949e-10,0.0085
3.727e-05,1.14332e-09,0.0074
4.785e-05,1.42586e-09,0.0067
6.144e-05,1.8142e-09,0.0059
7.889e-05,2.10339e-09,0.0053
0.0001013,2.36157e-09,0.0052
0.0001301,2.06285e-09,0.0048
0.000167,3.03705e-09,0.004
0.0002145,6.36813e-09,0.003
0.0002754,8.33568e-09,0.0026
0.0003536,1.03515e-08,0.0023
0.000454,1.25743e-08,0.0021
0.0005829,1.6222e-08,0.0018
0.0007485,2.12965e-08,0.0016
0.0009611,2.77414e-08,0.0014
0.001234,3.67896e-08,0.0012
0.001585,4.77757e-08,0.0011
0.002035,6.27473e-08,0.0009
0.002249,3.07549e-08,0.0013
0.002485,3.39404e-08,0.0013
0.002613,1.85089e-08,0.0018
0.002747,1.95476e-08,0.0017
0.003035,4.26155e-08,0.0011
0.003355,4.77969e-08,0.0011
0.003707,5.25505e-08,0.001
0.004307,8.99738e-08,0.0008
0.005531,1.86297e-07,0.0006
0.007102,2.50005e-07,0.0005
0.009119,3.32322e-07,0.0004
0.01059,2.52259e-07,0.0005
0.01171,1.96101e-07,0.0005
0.01503,6.02936e-07,0.0003
0.0193,8.40488e-07,0.0003
0.02187,5.63638e-07,0.0003
0.02358,4.07441e-07,0.0004
0.02418,1.50158e-07,0.0006
0.02479,1.56742e-07,0.0006
0.02606,3.37346e-07,0.0004
0.027,2.59727e-07,0.0005
0.0285,3.08063e-07,0.0005
0.03183,6.21978e-07,0.0003
0.03431,4.51389e-07,0.0004
0.04087,1.14494e-06,0.0002
0.04631,8.93842e-07,0.0003
0.05248,9.48813e-07,0.0003
0.05656,5.88364e-07,0.0003
0.06738,1.41625e-06,0.0002
0.07202,5.45403e-07,0.0004
0.0795,7.96858e-07,0.0003
0.0825,2.86895e-07,0.0005
0.08652,3.51766e-07,0.0004
0.09804,8.08646e-07,0.0003
0.1111,7.37782e-07,0.0003
0.1168,3.2174e-07,0.0005
0.1228,3.39179e-07,0.0005
0.1291,3.55728e-07,0.0004
0.1357,3.72041e-07,0.0004
0.1426,3.8741e-07,0.0004
0.15,4.13157e-07,0.0004
0.1576,4.20771e-07,0.0004
0.1657,4.43163e-07,0.0004
0.1742,4.57358e-07,0.0004
0.1832,4.74908e-07,0.0004
0.1925,4.79528e-07,0.0004
0.2024,4.96789e-07,0.0004
0.2128,5.07748e-07,0.0004
0.2237,5.18521e-07,0.0004
0.2352,5.32189e-07,0.0004
0.2472,5.37799e-07,0.0004
0.2732,1.10529e-06,0.0003
0.2872,5.58843e-07,0.0004
0.2945,2.81516e-07,0.0005
0.2972,1.02564e-07,0.0008
0.2985,4.90255e-08,0.0012
0.302,1.31085e-07,0.0007
0.3337,1.1338e-06,0.0003
0.3688,1.13992e-06,0.0002
0.3877,5.60167e-07,0.0004
0.4076,5.51548e-07,0.0004
0.4505,1.08806e-06,0.0003
0.4979,1.07376e-06,0.0003
0.5234,5.33909e-07,0.0004
0.5502,5.3238e-07,0.0004
0.5784,5.3011e-07,0.0004
0.6081,5.28319e-07,0.0004
0.6393,5.26528e-07,0.0004
0.6721,5.28404e-07,0.0004
0.7065,5.31651e-07,0.0003
0.7427,5.37015e-07,0.0003
0.7808,5.44702e-07,0.0003
0.8209,5.52693e-07,0.0003
0.8629,5.57053e-07,0.0003
0.9072,5.56708e-07,0.0003
0.9617,6.18575e-07,0.0003
1.003,3.82399e-07,0.0004
1.108,7.55633e-07,0.0003
1.165,3.74034e-07,0.0004
1.225,3.66736e-07,0.0004
1.287,3.52804e-07,0.0004
1.353,3.47406e-07,0.0004
1.423,3.39671e-07,0.0004
1.496,3.26861e-07,0.0004
1.572,3.13328e-07,0.0004
1.653,3.08115e-07,0.0004
1.738,2.97497e-07,0.0004
1.827,2.85072e-07,0.0005
1.921,2.75277e-07,0.0005
2.019,2.59818e-07,0.0005
2.122,2.44701e-07,0.0005
2.231,2.26289e-07,0.0005
2.307,1.43224e-07,0.0006
2.346,6.96475e-08,0.0009
2.365,3.30648e-08,0.0013
2.385,3.41033e-08,0.0013
2.466,1.3158e-07,0.0006
2.592,1.84167e-07,0.0005
2.725,1.72617e-07,0.0006
2.865,1.62927e-07,0.0006
3.012,1.55134e-07,0.0006
3.166,1.4838e-07,0.0006
3.329,1.44175e-07,0.0006
3.679,2.76858e-07,0.0004
4.066,2.70077e-07,0.0004
4.493,2.65799e-07,0.0004
4.724,1.33131e-07,0.0006
4.966,1.33499e-07,0.0006
5.22,1.35811e-07,0.0006
5.488,1.39334e-07,0.0006
5.77,1.42763e-07,0.0006
6.065,1.45643e-07,0.0005
6.376,1.49926e-07,0.0005
6.592,1.01726e-07,0.0006
6.703,5.15219e-08,0.0009
7.047,1.57573e-07,0.0005
7.408,1.61855e-07,0.0005
7.788,1.67445e-07,0.0005
8.187,1.71964e-07,0.0005
8.607,1.76635e-07,0.0005
9.048,1.81344e-07,0.0005
9.512,1.86943e-07,0.0004
10.0,2.09728e-07,0.0004
10.51,4.2985e-07,0.0003
11.05,4.5191e-07,0.0003
11.62,4.73764e-07,0.0003
12.21,4.90229e-07,0.0003
12.52,2.58604e-07,0.0004
12.84,2.67569e-07,0.0004
13.5,5.52906e-07,0.0002
13.84,2.7674e-07,0.0003
14.19,1.13786e-07,0.0005
14.55,0.0,0.0
14.92,0.0,0.0
15.68,0.0,0.0
16.49,0.0,0.0
16.9,0.0,0.0
17.33,0.0,0.0
19.64,0.0,0.0
