Energy,Value,Error
1e-07,8.95215558491992e-12,0.0226
4.14e-07,1.007633029009881e-09,0.005
5.316e-07,3.0582658549745934e-09,0.0069
6.826e-07,4.130187423577496e-09,0.0058
8.764e-07,5.294870516187936e-09,0.0052
1.125e-06,6.73646051650935e-09,0.0047
1.445e-06,8.105581052505275e-09,0.0043
1.855e-06,9.652272586416366e-09,0.0038
2.382e-06,1.1303798128347804e-08,0.0034
3.059e-06,1.2881235215736006e-08,0.0034
3.928e-06,1.4420158648483824e-08,0.0034
5.043e-06,1.5841469875024008e-08,0.0033
6.476e-06,1.7226698899115034e-08,0.0031
8.315e-06,1.849586162064091e-08,0.0031
1.068e-05,1.986650877703717e-08,0.003
1.371e-05,2.0744243521270708e-08,0.0033
1.76e-05,2.1709356625342356e-08,0.0033
2.26e-05,2.2478374030991888e-08,0.0032
2.902e-05,2.295791456103818e-08,0.0031
3.727e-05,2.358776276573032e-08,0.0032
4.785e-05,2.4212869306820362e-08,0.0032
6.144e-05,2.4538144378044526e-08,0.0087
7.889e-05,2.4577009986454695e-08,0.0033
0.0001013,2.4762956864318025e-08,0.0032
0.0001301,2.4783290655020164e-08,0.0033
0.000167,2.47819673219608e-08,0.0034
0.0002145,2.46961913290419e-08,0.0033
0.0002754,2.832188666950331e-08,0.0032
0.0003536,3.10159474019497e-08,0.0031
0.000454,4.1475869359007697e-08,0.0029
0.0005829,4.501188341468389e-08,0.0029
0.0007485,4.599337865079216e-08,0.0029
0.0009611,4.684064012823993e-08,0.0028
0.001234,4.86445139168197e-08,0.0028
0.001585,5.2051049721389585e-08,0.0026
0.002035,5.532880596925536e-08,0.0025
0.002249,5.805949066795417e-08,0.0039
0.002485,5.986722522906011e-08,0.0046
0.002613,6.156392842787045e-08,0.0052
0.002747,6.252216966126102e-08,0.0072
0.003035,6.439277927898655e-08,0.0036
0.003355,6.757867741133419e-08,0.0036
0.003707,7.069378006823935e-08,0.0034
0.004307,7.617517935106357e-08,0.0026
0.005531,9.055598852375899e-08,0.0018
0.007102,1.4223956012961642e-07,0.0014
0.009119,4.3276419124502525e-06,0.0002
0.01059,6.203737438027919e-06,0.0002
0.01171,1.0018201184778507e-08,0.0112
0.01503,7.891467693342015e-08,0.0023
0.0193,2.1220010992149713e-07,0.0013
0.02187,3.6115537306147393e-07,0.0014
0.02358,4.854970001993148e-07,0.0015
0.02418,5.719237693281804e-07,0.0023
0.02479,6.348832789625762e-07,0.0022
0.02606,6.799913244376555e-07,0.0014
0.027,7.895348563247554e-07,0.0016
0.0285,1.1081723564169839e-06,0.001
0.03183,2.001354615199039e-06,0.0005
0.03431,3.8011470551100694e-05,0.0001
0.04087,2.6942987363144858e-05,0.0001
0.04631,3.985071483369373e-08,0.006
0.05248,8.651742654516121e-08,0.0038
0.05656,2.5184895137422157e-07,0.0026
0.06738,7.410043054626331e-06,0.0002
0.07202,4.3595509576092754e-07,0.002
0.0795,2.1537413902367205e-06,0.0007
0.0825,1.3621886536570574e-05,0.0004
0.08652,0.00015938102342331025,0.0001
0.09804,7.5514825629699346e-06,0.0002
0.1111,3.454308291191453e-07,0.0017
0.1168,1.057905032969621e-06,0.0015
0.1228,2.4638706177809215e-05,0.0002
0.1291,3.547671378404503e-07,0.0025
0.1357,5.509908299395044e-07,0.002
0.1426,7.658617472650214e-07,0.0016
0.15,9.365927483030337e-07,0.0015
0.1576,1.0597394768321652e-06,0.0014
0.1657,1.4727163866872165e-06,0.0012
0.1742,2.8051495715872856e-06,0.0008
0.1832,2.5603884350258105e-05,0.0002
0.1925,1.063781201818679e-06,0.0014
0.2024,1.3508094157467963e-06,0.0012
0.2128,1.8851725153953828e-06,0.001
0.2237,3.409076962244027e-06,0.0008
0.2352,7.193945739071104e-05,0.0001
0.2472,1.3907998493866846e-06,0.001
0.2732,3.99817403237654e-07,0.0016
0.2872,7.394440185127285e-07,0.0017
0.2945,1.0076706298699397e-06,0.0021
0.2972,1.075966109728867e-06,0.0033
0.2985,1.4184556766748043e-06,0.004
0.302,1.6884839368475123e-06,0.0022
0.3337,2.2083172518625587e-06,0.0006
0.3688,8.291516235254039e-06,0.0002
0.3877,1.4454867189150688e-05,0.0002
0.4076,1.500295977490431e-05,0.0002
0.4505,1.5177606166957297e-05,0.0002
0.4979,1.5431645772986075e-05,0.0002
0.5234,1.4697376689778503e-05,0.0002
0.5502,1.293457288544501e-05,0.0003
0.5784,1.169578420511236e-05,0.0003
0.6081,1.0828884444113798e-05,0.0003
0.6393,9.836915352267191e-06,0.0003
0.6721,8.947858721191688e-06,0.0003
0.7065,8.320868550129913e-06,0.0003
0.7427,7.769077985839938e-06,0.0003
0.7808,6.56655501763048e-06,0.0003
0.8209,5.4269511181502355e-06,0.0004
0.8629,2.605580911412202e-06,0.0005
0.9072,1.366321734479397e-06,0.0008
0.9617,8.541536793007384e-07,0.0009
1.003,6.171174422092825e-07,0.0013
1.108,4.382947662576008e-07,0.0011
1.165,3.220245476586833e-07,0.0018
1.225,2.563493090055479e-07,0.002
1.287,2.06728019509313e-07,0.0023
1.353,1.6600560252449362e-07,0.0027
1.423,1.4036544658969463e-07,0.003
1.496,1.2318250071034304e-07,0.0033
1.572,1.0848912559317467e-07,0.0034
1.653,9.50348931516104e-08,0.0037
1.738,8.274799649123143e-08,0.004
1.827,6.667527621809308e-08,0.0046
1.921,6.5837155211705e-08,0.0047
2.019,6.614639173947951e-08,0.0047
2.122,6.279516016793049e-08,0.0047
2.231,5.646517425375134e-08,0.0053
2.307,5.122296062409518e-08,0.0063
2.346,5.100105447497066e-08,0.0091
2.365,5.0460735083292564e-08,0.0131
2.385,4.920389047599447e-08,0.0133
2.466,4.890491307778866e-08,0.0063
2.592,5.056772957975774e-08,0.0052
2.725,5.1235994959982357e-08,0.0051
2.865,4.9772931731049764e-08,0.0052
3.012,4.9295746724785134e-08,0.0051
3.166,4.071862407657368e-08,0.0056
3.329,3.8251700289360974e-08,0.0058
3.679,3.4026742325318205e-08,0.0044
4.066,2.9354599217136468e-08,0.0048
4.493,2.6221670441309432e-08,0.0058
4.724,2.4143682527722175e-08,0.0082
4.966,2.3213132844019588e-08,0.0078
5.22,2.1782695752823626e-08,0.0077
5.488,2.1138490657003145e-08,0.0077
5.77,2.06590978043304e-08,0.0079
6.065,2.06728661445422e-08,0.0078
6.376,2.0568567596913695e-08,0.0074
6.592,2.0343529498132912e-08,0.009
6.703,2.0494964021482626e-08,0.0133
7.047,2.088924475533899e-08,0.0081
7.408,2.123522396220292e-08,0.007
7.788,2.1969634653398413e-08,0.0073
8.187,2.2743828975720218e-08,0.0066
8.607,2.377414608091347e-08,0.0066
9.048,2.610355161674048e-08,0.0062
9.512,2.8998356409239585e-08,0.0057
10.0,3.6297943474674686e-08,0.0051
10.51,5.118763411446833e-08,0.0041
11.05,5.461822093849245e-08,0.0043
11.62,5.997575601411156e-08,0.0037
12.21,6.489702929390284e-08,0.0036
12.52,6.929700965470277e-08,0.0048
12.84,7.05905681321771e-08,0.0048
13.5,6.864163720282888e-08,0.0033
13.84,6.318269901851479e-08,0.0046
14.19,1.2689722714943432e-08,0.01
14.55,0.0,0.0
14.92,0.0,0.0
15.68,0.0,0.0
16.49,0.0,0.0
16.9,0.0,0.0
17.33,0.0,0.0
19.64,0.0,0.0
