Energy,Value,Error
1e-07,5.41062e-12,0.0691
4.14e-07,1.25809e-10,0.0152
5.316e-07,8.02275e-11,0.0207
6.826e-07,1.12541e-10,0.0157
8.764e-07,1.60573e-10,0.0156
1.125e-06,2.1275e-10,0.0127
1.445e-06,2.98494e-10,0.0116
1.855e-06,3.87549e-10,0.0115
2.382e-06,5.0749e-10,0.0098
3.059e-06,6.43708e-10,0.0091
3.928e-06,8.15031e-10,0.0086
5.043e-06,1.00546e-09,0.0075
6.476e-06,1.28439e-09,0.008
8.315e-06,1.57409e-09,0.0069
1.068e-05,1.95727e-09,0.006
1.371e-05,2.34981e-09,0.0056
1.76e-05,2.81169e-09,0.005
2.26e-05,3.45387e-09,0.0047
2.902e-05,4.14687e-09,0.0043
3.727e-05,5.01288e-09,0.004
4.785e-05,6.04362e-09,0.0037
6.144e-05,7.32478e-09,0.0033
7.889e-05,8.80799e-09,0.0031
0.0001013,1.06838e-08,0.0028
0.0001301,1.29445e-08,0.0025
0.000167,1.55849e-08,0.0023
0.0002145,1.8895e-08,0.002
0.0002754,2.27883e-08,0.0018
0.0003536,2.74117e-08,0.0017
0.000454,3.27897e-08,0.0016
0.0005829,3.86309e-08,0.0014
0.0007485,4.4599e-08,0.0013
0.0009611,4.85088e-08,0.0012
0.001234,4.49801e-08,0.0012
0.001585,2.83473e-08,0.0015
0.002035,6.3879e-09,0.0033
0.002249,1.52286e-09,0.0078
0.002485,6.38127e-09,0.0036
0.002613,5.11406e-09,0.0049
0.002747,6.33497e-09,0.0033
0.003035,1.66381e-08,0.002
0.003355,2.67891e-08,0.0015
0.003707,7.24539e-08,0.0008
0.004307,6.95192e-07,0.0002
0.005531,3.33029e-07,0.0004
0.007102,6.74709e-07,0.0003
0.009119,1.10994e-06,0.0002
0.01059,9.38849e-07,0.0002
0.01171,7.90144e-07,0.0002
0.01503,2.63324e-06,0.0001
0.0193,4.01904e-06,0.0001
0.02187,2.62951e-06,0.0001
0.02358,1.77264e-06,0.0002
0.02418,6.21594e-07,0.0003
0.02479,6.25767e-07,0.0003
0.02606,3.67625e-07,0.0004
0.027,1.37563e-07,0.0008
0.0285,2.13876e-07,0.0006
0.03183,4.52889e-07,0.0004
0.03431,3.15807e-07,0.0005
0.04087,7.67643e-07,0.0003
0.04631,5.7853e-07,0.0004
0.05248,6.10055e-07,0.0004
0.05656,3.81181e-07,0.0005
0.06738,9.42305e-07,0.0003
0.07202,3.75494e-07,0.0005
0.0795,5.75699e-07,0.0004
0.0825,2.21868e-07,0.0006
0.08652,2.89371e-07,0.0005
0.09804,7.8819e-07,0.0003
0.1111,8.26961e-07,0.0003
0.1168,3.41393e-07,0.0005
0.1228,3.47883e-07,0.0005
0.1291,3.53294e-07,0.0005
0.1357,3.58379e-07,0.0005
0.1426,3.62598e-07,0.0005
0.15,3.76429e-07,0.0005
0.1576,3.74492e-07,0.0005
0.1657,3.86202e-07,0.0005
0.1742,3.91774e-07,0.0005
0.1832,4.01583e-07,0.0005
0.1925,4.01504e-07,0.0005
0.2024,4.13584e-07,0.0005
0.2128,4.18961e-07,0.0004
0.2237,4.23797e-07,0.0004
0.2352,4.31104e-07,0.0004
0.2472,4.34777e-07,0.0005
0.2732,8.91652e-07,0.0003
0.2872,4.54314e-07,0.0004
0.2945,2.30438e-07,0.0006
0.2972,8.39299e-08,0.001
0.2985,4.04059e-08,0.0015
0.302,1.07758e-07,0.0009
0.3337,9.31699e-07,0.0003
0.3688,9.46257e-07,0.0003
0.3877,4.74719e-07,0.0004
0.4076,4.74513e-07,0.0004
0.4505,9.32958e-07,0.0003
0.4979,8.96319e-07,0.0003
0.5234,4.26681e-07,0.0004
0.5502,4.07917e-07,0.0004
0.5784,3.85655e-07,0.0005
0.6081,3.60237e-07,0.0005
0.6393,3.31588e-07,0.0005
0.6721,2.99113e-07,0.0005
0.7065,2.57067e-07,0.0006
0.7427,2.26735e-07,0.0006
0.7808,2.04949e-07,0.0006
0.8209,1.86254e-07,0.0007
0.8629,1.68615e-07,0.0007
0.9072,1.5489e-07,0.0007
0.9617,1.64939e-07,0.0007
1.003,1.10023e-07,0.0008
1.108,2.41825e-07,0.0006
1.165,1.14107e-07,0.0008
1.225,1.09843e-07,0.0008
1.287,1.03843e-07,0.0008
1.353,1.00906e-07,0.0008
1.423,9.7282e-08,0.0009
1.496,9.23593e-08,0.0009
1.572,8.2497e-08,0.0009
1.653,7.54749e-08,0.001
1.738,7.01907e-08,0.001
1.827,6.44941e-08,0.001
1.921,6.05622e-08,0.0011
2.019,5.52305e-08,0.0011
2.122,5.04413e-08,0.0012
2.231,4.61848e-08,0.0012
2.307,2.86971e-08,0.0016
2.346,1.37683e-08,0.0022
2.365,6.46829e-09,0.0032
2.385,6.58585e-09,0.0031
2.466,2.47253e-08,0.0016
2.592,3.41776e-08,0.0014
2.725,3.09867e-08,0.0015
2.865,2.83331e-08,0.0015
3.012,2.56603e-08,0.0015
3.166,2.34017e-08,0.0016
3.329,2.18237e-08,0.0017
3.679,3.97825e-08,0.0012
4.066,3.75614e-08,0.0013
4.493,3.60445e-08,0.0013
4.724,1.79933e-08,0.004
4.966,1.81837e-08,0.0018
5.22,1.86025e-08,0.0017
5.488,1.91624e-08,0.0017
5.77,1.98174e-08,0.0017
6.065,2.05524e-08,0.0016
6.376,2.15513e-08,0.0016
6.592,1.4854e-08,0.0019
6.703,7.65007e-09,0.0026
7.047,2.35759e-08,0.0015
7.408,2.47296e-08,0.0014
7.788,2.56473e-08,0.0014
8.187,2.63978e-08,0.0014
8.607,2.78397e-08,0.0013
9.048,2.92579e-08,0.0014
9.512,3.23786e-08,0.0012
10.0,3.84908e-08,0.0011
10.51,6.12742e-08,0.0008
11.05,6.40101e-08,0.0008
11.62,6.69006e-08,0.0008
12.21,6.99066e-08,0.0008
12.52,3.65445e-08,0.001
12.84,3.74823e-08,0.001
13.5,7.29624e-08,0.0007
13.84,3.38048e-08,0.001
14.19,1.09005e-08,0.0017
14.55,0.0,0.0
14.92,0.0,0.0
15.68,0.0,0.0
16.49,0.0,0.0
16.9,0.0,0.0
17.33,0.0,0.0
19.64,0.0,0.0
