Energy,Value,Error
1e-07,0.0,0.0
4.14e-07,2.0207704031912958e-14,1.0
5.316e-07,0.0,0.0
6.826e-07,0.0,0.0
8.764e-07,0.0,0.0
1.125e-06,4.884794853550868e-11,0.0548
1.445e-06,1.1217958952308822e-10,0.0372
1.855e-06,1.4281391859433935e-10,0.0333
2.382e-06,1.9110616431128157e-10,0.0299
3.059e-06,2.401905970096884e-10,0.0255
3.928e-06,2.910031327931145e-10,0.0245
5.043e-06,3.575416453088039e-10,0.0197
6.476e-06,3.66618177105759e-10,0.0198
8.315e-06,1.1474604207154291e-10,0.0327
1.068e-05,7.681022659209567e-10,0.0144
1.371e-05,1.0733058857300422e-09,0.0122
1.76e-05,1.3724199149139327e-09,0.0109
2.26e-05,1.6805691354333517e-09,0.0094
2.902e-05,8.839670382549212e-10,0.0121
3.727e-05,1.6433265554453894e-09,0.0093
4.785e-05,3.849954950929651e-09,0.0068
6.144e-05,4.903396705830174e-09,0.0062
7.889e-05,4.294513576698545e-09,0.0058
0.0001013,6.078303578224543e-09,0.005
0.0001301,1.012441305172589e-08,0.0046
0.000167,1.4043870418101071e-08,0.0037
0.0002145,1.7852719450496052e-08,0.0033
0.0002754,2.147111323925218e-08,0.0029
0.0003536,2.9378045734623845e-08,0.0025
0.000454,3.679409470370222e-08,0.0022
0.0005829,4.70133363125553e-08,0.0019
0.0007485,6.070930825275243e-08,0.0017
0.0009611,8.114124431727615e-08,0.0015
0.001234,1.0358139481836418e-07,0.0013
0.001585,1.3743616757919098e-07,0.0011
0.002035,1.7009027212385082e-07,0.001
0.002249,2.0313560997115613e-07,0.0015
0.002485,2.2516362876556367e-07,0.0014
0.002613,2.4377255383349346e-07,0.0019
0.002747,2.560286406886849e-07,0.0019
0.003035,2.772060257274633e-07,0.0013
0.003355,3.0735328893408535e-07,0.0012
0.003707,3.41425339102327e-07,0.0012
0.004307,3.8927285094807186e-07,0.0009
0.005531,4.83398385395299e-07,0.0006
0.007102,6.314962884537474e-07,0.0005
0.009119,8.269738709613628e-07,0.0005
0.01059,1.022046065551073e-06,0.0006
0.01171,1.1706203826917702e-06,0.0006
0.01503,1.4176717730831926e-06,0.0004
0.0193,1.869538551759365e-06,0.0003
0.02187,2.293210989733193e-06,0.0004
0.02358,2.558198337370371e-06,0.0005
0.02418,2.707881370017108e-06,0.0008
0.02479,2.782744891753005e-06,0.0009
0.02606,2.8977071342355942e-06,0.0006
0.027,3.040810076658483e-06,0.0007
0.0285,3.1945788213635516e-06,0.0005
0.03183,3.5032031169519008e-06,0.0004
0.03431,3.88503616649459e-06,0.0004
0.04087,4.4718249946596955e-06,0.0003
0.04631,5.219034330531395e-06,0.0003
0.05248,5.723865208074343e-06,0.0003
0.05656,5.807542601892526e-06,0.0003
0.06738,6.025094525034887e-06,0.0002
0.07202,6.699719867110002e-06,0.0003
0.0795,7.197381150893227e-06,0.0003
0.0825,7.652275074302438e-06,0.0004
0.08652,7.964090823235175e-06,0.0004
0.09804,8.424962859428772e-06,0.0002
0.1111,2.9649801357420475e-06,0.0004
0.1168,2.6390912544669562e-06,0.0006
0.1228,2.818065119472531e-06,0.0006
0.1291,3.007678421246247e-06,0.0006
0.1357,3.2082700618368884e-06,0.0006
0.1426,3.4232151439117794e-06,0.0006
0.15,3.6523122464210346e-06,0.0006
0.1576,3.8922499568729125e-06,0.0005
0.1657,4.129133554833641e-06,0.0005
0.1742,4.3814769946039824e-06,0.0005
0.1832,4.649068904405672e-06,0.0005
0.1925,4.931892892082741e-06,0.0005
0.2024,5.2513686131071876e-06,0.0005
0.2128,5.561219005690243e-06,0.0004
0.2237,5.902535276155657e-06,0.0004
0.2352,6.256210368826969e-06,0.0004
0.2472,6.633962733951488e-06,0.0004
0.2732,7.236716697212368e-06,0.0003
0.2872,7.847489342125856e-06,0.0004
0.2945,8.165643234115493e-06,0.0005
0.2972,8.314521648104321e-06,0.0008
0.2985,8.373352111218464e-06,0.0012
0.302,8.45639401885014e-06,0.0007
0.3337,8.965423005514507e-06,0.0002
0.3688,9.9211789495063e-06,0.0002
0.3877,1.064448131254838e-05,0.0003
0.4076,1.1132555161970304e-05,0.0003
0.4505,1.191734624133496e-05,0.0002
0.4979,1.2944969701638916e-05,0.0002
0.5234,1.3719214682117522e-05,0.0003
0.5502,1.4242711007033564e-05,0.0003
0.5784,1.4749192144162059e-05,0.0003
0.6081,1.526023517836564e-05,0.0003
0.6393,1.5776019075622673e-05,0.0003
0.6721,1.6282672092013375e-05,0.0003
0.7065,1.6769070860157323e-05,0.0002
0.7427,1.725820265688866e-05,0.0002
0.7808,1.776364432522126e-05,0.0002
0.8209,1.8237753695464243e-05,0.0002
0.8629,1.8607461515054312e-05,0.0002
0.9072,1.884974578189877e-05,0.0002
0.9617,1.8969613168680968e-05,0.0002
1.003,1.802125529384479e-05,0.0003
1.108,1.3153332693976083e-05,0.0002
1.165,1.328088623157426e-05,0.0003
1.225,1.3385648207751047e-05,0.0003
1.287,1.3506974603047985e-05,0.0003
1.353,1.3585768569685738e-05,0.0003
1.423,1.3635101206442955e-05,0.0003
1.496,1.3664168189000579e-05,0.0003
1.572,1.3679451470265292e-05,0.0003
1.653,1.3674866010008828e-05,0.0003
1.738,1.3648169457788422e-05,0.0003
1.827,1.3596307437102106e-05,0.0003
1.921,1.3498780435860216e-05,0.0003
2.019,1.3396512928996535e-05,0.0003
2.122,1.3306368560254372e-05,0.0003
2.231,1.3208653204484622e-05,0.0003
2.307,1.3105354488288904e-05,0.0004
2.346,1.3028870382635377e-05,0.0005
2.365,1.30019175818256e-05,0.0007
2.385,1.2979892044374398e-05,0.0007
2.466,1.2910065872018349e-05,0.0004
2.592,1.2781991948098841e-05,0.0003
2.725,1.2642127730035352e-05,0.0003
2.865,1.2450378652463005e-05,0.0003
3.012,1.2211577489412285e-05,0.0003
3.166,1.1965389946556715e-05,0.0003
3.329,1.1729040766779647e-05,0.0003
3.679,1.1273692868539144e-05,0.0002
4.066,1.063550700346011e-05,0.0002
4.493,9.920808368038316e-06,0.0002
4.724,9.39590065975792e-06,0.0003
4.966,9.048137701141287e-06,0.0003
5.22,8.685513642604418e-06,0.0003
5.488,8.362479820352893e-06,0.0003
5.77,8.056327702580714e-06,0.0003
6.065,7.758180912967593e-06,0.0003
6.376,7.548213965702969e-06,0.0003
6.592,7.339719436393517e-06,0.0004
6.703,7.228658902388441e-06,0.0006
7.047,7.077634347760647e-06,0.0003
7.408,6.877127603421706e-06,0.0003
7.788,6.732723478700017e-06,0.0003
8.187,6.639874693340278e-06,0.0003
8.607,6.574819273870944e-06,0.0003
9.048,6.570996852269311e-06,0.0003
9.512,6.6053233746922245e-06,0.0003
10.0,6.793936780787794e-06,0.0003
10.51,1.4685691175689373e-05,0.0002
11.05,1.521508296100428e-05,0.0002
11.62,1.5817084195993715e-05,0.0002
12.21,1.6489655138027345e-05,0.0002
12.52,1.7058019988904973e-05,0.0003
12.84,1.7478729623724652e-05,0.0003
13.5,1.8124012103951005e-05,0.0002
13.84,1.876171080803482e-05,0.0003
14.19,8.521397856710942e-06,0.0004
14.55,3.838493248958098e-08,0.0073
14.92,3.104501362105005e-08,0.008
15.68,2.2434647146070572e-08,0.0068
16.49,1.3760370196580053e-08,0.0085
16.9,9.527764796111641e-09,0.0146
17.33,7.582541163906058e-09,0.0166
19.64,3.5209527657890316e-09,0.0106
