Energy,Value,Error
1e-07,7.94641e-12,0.057
4.14e-07,2.36582e-10,0.0114
5.316e-07,1.52445e-10,0.0137
6.826e-07,2.28065e-10,0.0123
8.764e-07,3.1678e-10,0.0112
1.125e-06,4.24348e-10,0.0087
1.445e-06,5.653e-10,0.0071
1.855e-06,7.38551e-10,0.0066
2.382e-06,9.41101e-10,0.006
3.059e-06,1.18352e-09,0.0057
3.928e-06,1.46056e-09,0.0055
5.043e-06,1.77415e-09,0.0054
6.476e-06,2.1511e-09,0.0051
8.315e-06,2.55617e-09,0.0047
1.068e-05,3.01446e-09,0.0044
1.371e-05,3.44216e-09,0.0041
1.76e-05,3.96049e-09,0.004
2.26e-05,4.51183e-09,0.0038
2.902e-05,5.13714e-09,0.0037
3.727e-05,5.77369e-09,0.0036
4.785e-05,6.50106e-09,0.0035
6.144e-05,7.21127e-09,0.0033
7.889e-05,7.9975e-09,0.0031
0.0001013,8.85485e-09,0.0031
0.0001301,9.77121e-09,0.0028
0.000167,1.0744e-08,0.0027
0.0002145,1.18855e-08,0.0025
0.0002754,1.33855e-08,0.0024
0.0003536,1.59425e-08,0.0022
0.000454,1.74835e-08,0.0021
0.0005829,1.9194e-08,0.0021
0.0007485,2.0724e-08,0.002
0.0009611,2.42548e-08,0.0018
0.001234,2.51554e-08,0.0018
0.001585,2.52665e-08,0.0017
0.002035,2.46361e-08,0.0016
0.002249,1.0522e-08,0.0024
0.002485,1.58232e-08,0.0019
0.002613,4.4906e-08,0.0009
0.002747,1.11563e-09,0.0087
0.003035,7.05105e-09,0.0033
0.003355,1.16386e-08,0.0024
0.003707,2.18101e-08,0.0015
0.004307,2.19485e-07,0.0004
0.005531,2.8405e-07,0.0003
0.007102,5.28232e-08,0.0011
0.009119,5.3166e-07,0.0003
0.01059,4.8777e-07,0.0003
0.01171,1.94828e-07,0.0005
0.01503,5.40674e-07,0.0003
0.0193,2.12583e-06,0.0001
0.02187,1.51647e-06,0.0002
0.02358,3.18981e-07,0.0004
0.02418,1.98583e-07,0.0005
0.02479,4.93995e-08,0.0012
0.02606,1.5899e-07,0.0007
0.027,2.19623e-07,0.0005
0.0285,6.54604e-07,0.0003
0.03183,1.62981e-06,0.0002
0.03431,2.8917e-06,0.0001
0.04087,2.92435e-06,0.0001
0.04631,2.76266e-06,0.0001
0.05248,2.68083e-06,0.0001
0.05656,2.86542e-07,0.0005
0.06738,7.07986e-07,0.0003
0.07202,2.81061e-07,0.0005
0.0795,4.28546e-07,0.0004
0.0825,1.64506e-07,0.0007
0.08652,2.14696e-07,0.0006
0.09804,5.8041e-07,0.0004
0.1111,6.03917e-07,0.0004
0.1168,2.47313e-07,0.0005
0.1228,2.50539e-07,0.0005
0.1291,2.5365e-07,0.0005
0.1357,2.56135e-07,0.0006
0.1426,2.57506e-07,0.0005
0.15,2.66255e-07,0.0005
0.1576,2.62713e-07,0.0005
0.1657,2.69384e-07,0.0005
0.1742,2.7196e-07,0.0005
0.1832,2.7641e-07,0.0005
0.1925,2.7467e-07,0.0005
0.2024,2.80491e-07,0.0005
0.2128,2.82765e-07,0.0005
0.2237,2.84208e-07,0.0005
0.2352,2.8735e-07,0.0005
0.2472,2.86916e-07,0.0005
0.2732,5.82005e-07,0.0004
0.2872,2.92213e-07,0.0005
0.2945,1.47126e-07,0.0007
0.2972,5.35369e-08,0.0012
0.2985,2.55634e-08,0.0017
0.302,6.84266e-08,0.0011
0.3337,5.8784e-07,0.0004
0.3688,5.88628e-07,0.0004
0.3877,2.93034e-07,0.0005
0.4076,2.91157e-07,0.0005
0.4505,5.71359e-07,0.0004
0.4979,5.51021e-07,0.0004
0.5234,2.64785e-07,0.0005
0.5502,2.56215e-07,0.0006
0.5784,2.4687e-07,0.0006
0.6081,2.35221e-07,0.0006
0.6393,2.2077e-07,0.0006
0.6721,2.04634e-07,0.0006
0.7065,1.8656e-07,0.0006
0.7427,1.68563e-07,0.0007
0.7808,1.51057e-07,0.0007
0.8209,1.34165e-07,0.0008
0.8629,1.18781e-07,0.0008
0.9072,1.02328e-07,0.0009
0.9617,1.06315e-07,0.0009
1.003,7.0545e-08,0.0011
1.108,1.52334e-07,0.0007
1.165,7.05167e-08,0.0011
1.225,6.72257e-08,0.001
1.287,6.35773e-08,0.0011
1.353,6.19319e-08,0.0011
1.423,6.03227e-08,0.0011
1.496,5.80371e-08,0.0011
1.572,5.34109e-08,0.0012
1.653,5.05271e-08,0.0012
1.738,4.7702e-08,0.0012
1.827,4.47033e-08,0.0012
1.921,4.25755e-08,0.0013
2.019,4.01795e-08,0.0013
2.122,3.83871e-08,0.0013
2.231,3.48848e-08,0.0014
2.307,2.15442e-08,0.0017
2.346,1.03546e-08,0.0025
2.365,4.90554e-09,0.0037
2.385,5.0767e-09,0.0035
2.466,1.96364e-08,0.0018
2.592,2.7371e-08,0.0016
2.725,2.48465e-08,0.0016
2.865,2.31481e-08,0.0017
3.012,2.15994e-08,0.0017
3.166,1.98984e-08,0.0018
3.329,1.82026e-08,0.0019
3.679,3.22736e-08,0.0014
4.066,2.84138e-08,0.0015
4.493,2.59297e-08,0.0015
4.724,1.25365e-08,0.0022
4.966,1.26016e-08,0.0022
5.22,1.28116e-08,0.0022
5.488,1.32324e-08,0.0021
5.77,1.37529e-08,0.002
6.065,1.43425e-08,0.002
6.376,1.53601e-08,0.002
6.592,1.07512e-08,0.0023
6.703,5.57397e-09,0.0032
7.047,1.73911e-08,0.0018
7.408,1.87227e-08,0.0017
7.788,2.03825e-08,0.0016
8.187,2.15922e-08,0.0015
8.607,2.2957e-08,0.0015
9.048,2.46447e-08,0.0014
9.512,2.75195e-08,0.0013
10.0,3.2141e-08,0.0012
10.51,4.57002e-08,0.001
11.05,4.7422e-08,0.001
11.62,4.74205e-08,0.0009
12.21,4.79605e-08,0.0009
12.52,2.48477e-08,0.0013
12.84,2.51577e-08,0.0012
13.5,4.69117e-08,0.0009
13.84,2.15926e-08,0.0013
14.19,6.08969e-09,0.0023
14.55,0.0,0.0
14.92,0.0,0.0
15.68,0.0,0.0
16.49,0.0,0.0
16.9,0.0,0.0
17.33,0.0,0.0
19.64,0.0,0.0
