Energy,Value,Error
1e-07,2.61965e-11,0.0338
4.14e-07,7.40821e-10,0.0066
5.316e-07,4.62218e-10,0.0087
6.826e-07,6.8836e-10,0.0072
8.764e-07,9.99868e-10,0.0063
1.125e-06,1.36887e-09,0.0053
1.445e-06,1.90858e-09,0.0048
1.855e-06,2.54744e-09,0.0044
2.382e-06,3.37207e-09,0.004
3.059e-06,4.42908e-09,0.0037
3.928e-06,5.69998e-09,0.0034
5.043e-06,7.27708e-09,0.0032
6.476e-06,9.1529e-09,0.0028
8.315e-06,1.14425e-08,0.0027
1.068e-05,1.44279e-08,0.0024
1.371e-05,1.75347e-08,0.0023
1.76e-05,2.14541e-08,0.002
2.26e-05,2.61621e-08,0.0019
2.902e-05,3.16803e-08,0.0017
3.727e-05,3.84115e-08,0.0016
4.785e-05,4.62074e-08,0.0014
6.144e-05,5.53263e-08,0.0013
7.889e-05,6.64068e-08,0.0012
0.0001013,7.93885e-08,0.0014
0.0001301,9.49057e-08,0.001
0.000167,1.12709e-07,0.0009
0.0002145,1.34339e-07,0.0008
0.0002754,1.59234e-07,0.0008
0.0003536,1.89601e-07,0.0007
0.000454,2.23934e-07,0.0007
0.0005829,2.64304e-07,0.0006
0.0007485,3.11353e-07,0.0006
0.0009611,3.65694e-07,0.0005
0.001234,4.27638e-07,0.0005
0.001585,4.99956e-07,0.0004
0.002035,5.80808e-07,0.0004
0.002249,2.57471e-07,0.0006
0.002485,2.72058e-07,0.0006
0.002613,1.42898e-07,0.0008
0.002747,1.46404e-07,0.0008
0.003035,3.04351e-07,0.0006
0.003355,3.23548e-07,0.0006
0.003707,3.40064e-07,0.0005
0.004307,5.46709e-07,0.0004
0.005531,1.01098e-06,0.0003
0.007102,1.14239e-06,0.0003
0.009119,1.28131e-06,0.0003
0.01059,8.33811e-07,0.0003
0.01171,5.89138e-07,0.0004
0.01503,1.55914e-06,0.0002
0.0193,1.68931e-06,0.0002
0.02187,8.87729e-07,0.0003
0.02358,5.48259e-07,0.0004
0.02418,1.85021e-07,0.0008
0.02479,1.84326e-07,0.0007
0.02606,3.72541e-07,0.0005
0.027,2.66337e-07,0.0006
0.0285,4.0896e-07,0.0005
0.03183,8.46077e-07,0.0003
0.03431,5.80925e-07,0.0004
0.04087,1.36411e-06,0.0003
0.04631,9.78333e-07,0.0003
0.05248,9.79662e-07,0.0003
0.05656,5.87324e-07,0.0004
0.06738,1.3848e-06,0.0003
0.07202,5.36489e-07,0.0004
0.0795,8.15412e-07,0.0003
0.0825,3.13426e-07,0.0005
0.08652,4.09453e-07,0.0005
0.09804,1.11657e-06,0.0003
0.1111,1.17169e-06,0.0003
0.1168,4.84095e-07,0.0004
0.1228,4.92806e-07,0.0004
0.1291,4.99539e-07,0.0004
0.1357,5.06388e-07,0.0004
0.1426,5.10846e-07,0.0004
0.15,5.28161e-07,0.0004
0.1576,5.22873e-07,0.0004
0.1657,5.36991e-07,0.0004
0.1742,5.43028e-07,0.0004
0.1832,5.53951e-07,0.0004
0.1925,5.51748e-07,0.0004
0.2024,5.66502e-07,0.0004
0.2128,5.72759e-07,0.0004
0.2237,5.80426e-07,0.0004
0.2352,5.91449e-07,0.0004
0.2472,6.03461e-07,0.0004
0.2732,1.78074e-06,0.0002
0.2872,1.06447e-06,0.0003
0.2945,5.47046e-07,0.0004
0.2972,2.0064e-07,0.0007
0.2985,9.6297e-08,0.0009
0.302,2.58487e-07,0.0006
0.3337,2.00213e-06,0.0002
0.3688,2.11574e-06,0.0002
0.3877,1.1206e-06,0.0003
0.4076,1.16776e-06,0.0003
0.4505,2.4579e-06,0.0002
0.4979,2.62216e-06,0.0002
0.5234,1.36783e-06,0.0002
0.5502,1.40219e-06,0.0002
0.5784,1.43152e-06,0.0002
0.6081,1.45256e-06,0.0002
0.6393,1.45084e-06,0.0002
0.6721,1.42906e-06,0.0002
0.7065,1.37282e-06,0.0002
0.7427,1.28019e-06,0.0002
0.7808,1.13991e-06,0.0003
0.8209,9.49143e-07,0.0003
0.8629,7.56258e-07,0.0003
0.9072,6.21556e-07,0.0003
0.9617,6.02726e-07,0.0004
1.003,3.682e-07,0.0004
1.108,7.48423e-07,0.0003
1.165,3.12208e-07,0.0005
1.225,2.73055e-07,0.0005
1.287,2.3632e-07,0.0006
1.353,2.09788e-07,0.0006
1.423,1.84552e-07,0.0006
1.496,1.60156e-07,0.0007
1.572,1.38563e-07,0.0007
1.653,1.22154e-07,0.0008
1.738,1.05392e-07,0.0008
1.827,9.02887e-08,0.0009
1.921,7.82694e-08,0.001
2.019,6.40019e-08,0.0011
2.122,5.38247e-08,0.0012
2.231,4.3699e-08,0.0013
2.307,2.47463e-08,0.0017
2.346,1.12433e-08,0.0025
2.365,5.17942e-09,0.0037
2.385,5.25324e-09,0.0037
2.466,1.95907e-08,0.0019
2.592,2.56016e-08,0.0017
2.725,2.19562e-08,0.0018
2.865,1.89782e-08,0.002
3.012,1.64371e-08,0.0021
3.166,1.43315e-08,0.0022
3.329,1.26286e-08,0.0023
3.679,2.08965e-08,0.0018
4.066,1.66014e-08,0.002
4.493,1.34565e-08,0.0022
4.724,6.04063e-09,0.0032
4.966,5.69257e-09,0.0032
5.22,5.52946e-09,0.0032
5.488,5.53439e-09,0.0032
5.77,5.65429e-09,0.0031
6.065,5.84793e-09,0.003
6.376,6.15401e-09,0.0029
6.592,4.26452e-09,0.0035
6.703,2.19025e-09,0.0047
7.047,6.7318e-09,0.0027
7.408,6.86226e-09,0.0027
7.788,6.96744e-09,0.0027
8.187,6.9828e-09,0.0026
8.607,7.09668e-09,0.0027
9.048,7.26919e-09,0.0026
9.512,7.53852e-09,0.0026
10.0,8.69468e-09,0.0024
10.51,1.65812e-08,0.0016
11.05,1.79704e-08,0.0016
11.62,1.9419e-08,0.0015
12.21,2.04865e-08,0.0015
12.52,1.07638e-08,0.002
12.84,1.12244e-08,0.002
13.5,2.29893e-08,0.0014
13.84,1.16831e-08,0.0019
14.19,3.7958e-09,0.0031
14.55,0.0,0.0
14.92,0.0,0.0
15.68,0.0,0.0
16.49,0.0,0.0
16.9,0.0,0.0
17.33,0.0,0.0
19.64,0.0,0.0
