Energy,Value,Error
1e-07,9.87494450006795e-15,0.6718
4.14e-07,2.5606326358847575e-11,0.0288
5.316e-07,1.9644367824287725e-10,0.0249
6.826e-07,4.114668522913669e-10,0.0199
8.764e-07,8.05822584959134e-10,0.0124
1.125e-06,1.4970624179597286e-09,0.0093
1.445e-06,2.589372496974574e-09,0.0072
1.855e-06,4.2023358072114455e-09,0.0058
2.382e-06,6.6254818583443394e-09,0.0047
3.059e-06,9.842629138701629e-09,0.0037
3.928e-06,1.3933361063944712e-08,0.0032
5.043e-06,1.89222626128e-08,0.0028
6.476e-06,2.5159465734329767e-08,0.0023
8.315e-06,3.237350880051624e-08,0.0021
1.068e-05,4.07547835308873e-08,0.0019
1.371e-05,4.901329178208912e-08,0.0018
1.76e-05,5.832286186604408e-08,0.0016
2.26e-05,6.826447289136647e-08,0.0014
2.902e-05,7.827053530838018e-08,0.0013
3.727e-05,8.868542211515525e-08,0.0013
4.785e-05,9.884569527228938e-08,0.0012
6.144e-05,1.0924718258599782e-07,0.0011
7.889e-05,1.1994917228732387e-07,0.0011
0.0001013,1.309344748765928e-07,0.001
0.0001301,1.420175433922906e-07,0.001
0.000167,1.545605912064843e-07,0.001
0.0002145,1.6846990394131647e-07,0.0009
0.0002754,1.8549518119722556e-07,0.0009
0.0003536,2.0839696110256656e-07,0.0008
0.000454,2.4965183644416285e-07,0.0008
0.0005829,2.7206515090595484e-07,0.0007
0.0007485,4.176551823033659e-07,0.0006
0.0009611,3.6539979175774314e-07,0.0006
0.001234,7.210115531145693e-07,0.0005
0.001585,1.2662415753506521e-06,0.0003
0.002035,7.830014594946127e-07,0.0004
0.002249,2.7727613220728703e-06,0.0003
0.002485,3.0204138871785863e-06,0.0003
0.002613,3.1451832030603893e-06,0.0004
0.002747,3.2442038706269857e-06,0.0004
0.003035,3.4911028791865606e-06,0.0002
0.003355,3.700545889226769e-06,0.0002
0.003707,4.014867874776626e-06,0.0002
0.004307,4.28341985042817e-06,0.0002
0.005531,4.973912756111069e-06,0.0001
0.007102,5.721501408863809e-06,0.0001
0.009119,6.82308447126183e-06,0.0001
0.01059,7.301972063844413e-06,0.0002
0.01171,8.07538673542847e-06,0.0002
0.01503,8.24975374782384e-06,0.0001
0.0193,8.663508457649316e-06,0.0001
0.02187,9.353916402958781e-06,0.0002
0.02358,9.431909330378254e-06,0.0002
0.02418,9.681955002513521e-06,0.0003
0.02479,9.857793313846845e-06,0.0003
0.02606,1.7334702836837543e-06,0.0006
0.027,5.13372341205108e-08,0.0066
0.0285,5.359069565487252e-08,0.0055
0.03183,5.7321217785807196e-08,0.0036
0.03431,6.028326990342572e-08,0.0043
0.04087,6.437091908024648e-08,0.0026
0.04631,7.019347056546258e-08,0.0031
0.05248,7.71242841287417e-08,0.0031
0.05656,8.287498594311727e-08,0.0038
0.06738,8.933697809926145e-08,0.0024
0.07202,9.404837701353299e-08,0.0038
0.0795,9.724433127654829e-08,0.003
0.0825,1.0054892370166328e-07,0.005
0.08652,1.0198075994724967e-07,0.0042
0.09804,1.0709123634671957e-07,0.0026
0.1111,1.1213533666730758e-07,0.0029
0.1168,1.1389565541383153e-07,0.0042
0.1228,1.1390717907470127e-07,0.0039
0.1291,1.1484164698438669e-07,0.0039
0.1357,1.1535748751868269e-07,0.004
0.1426,1.1675538585590483e-07,0.0039
0.15,1.1750247335333546e-07,0.0038
0.1576,1.1824772475983713e-07,0.004
0.1657,1.1852910047739705e-07,0.004
0.1742,1.1932360412553013e-07,0.004
0.1832,1.1919072885332825e-07,0.0039
0.1925,1.2044682650442432e-07,0.0041
0.2024,1.207740005019137e-07,0.0039
0.2128,1.1900994702022974e-07,0.0037
0.2237,1.1773781209809597e-07,0.004
0.2352,1.1576740011055386e-07,0.0039
0.2472,1.1323169353036017e-07,0.004
0.2732,1.074481210497673e-07,0.0028
0.2872,1.0212965824853166e-07,0.0042
0.2945,9.621609705413415e-08,0.0059
0.2972,9.276739701037642e-08,0.01
0.2985,9.505226137454668e-08,0.0168
0.302,9.34127221996867e-08,0.0102
0.3337,9.084663160541492e-08,0.0031
0.3688,8.729653194721845e-08,0.0032
0.3877,8.311824758829764e-08,0.0045
0.4076,8.065895163904066e-08,0.0047
0.4505,7.706978262416949e-08,0.0034
0.4979,6.84828011110927e-08,0.0041
0.5234,6.482365476224386e-08,0.005
0.5502,6.46543406643472e-08,0.0052
0.5784,6.280672129797012e-08,0.0053
0.6081,6.247035457843777e-08,0.0053
0.6393,6.082744652349142e-08,0.005
0.6721,5.978496981439749e-08,0.0058
0.7065,5.883236406793271e-08,0.0054
0.7427,5.6635322337755004e-08,0.0055
0.7808,5.487034513383548e-08,0.0053
0.8209,5.342749653565884e-08,0.0058
0.8629,5.056865546811708e-08,0.0054
0.9072,4.924424577228236e-08,0.0057
0.9617,4.708824053187477e-08,0.0052
1.003,4.583973484257585e-08,0.0062
1.108,4.314637836640785e-08,0.0041
1.165,4.039629723839096e-08,0.0059
1.225,3.87054839953086e-08,0.0061
1.287,3.757330566601889e-08,0.0063
1.353,3.4659576545897406e-08,0.0066
1.423,3.2869396918149465e-08,0.0074
1.496,3.203194370781929e-08,0.0069
1.572,3.015751696300297e-08,0.0072
1.653,2.7630248011950136e-08,0.0069
1.738,2.6526424074933238e-08,0.0078
1.827,2.6119812887688422e-08,0.0075
1.921,2.5409499539956117e-08,0.0076
2.019,2.38475588146348e-08,0.0084
2.122,2.2997706443491774e-08,0.0075
2.231,2.233021471925407e-08,0.0081
2.307,2.1500705400883122e-08,0.0096
2.346,2.1003567703641878e-08,0.015
2.365,2.0924660861112085e-08,0.0203
2.385,2.104332564292117e-08,0.0196
2.466,2.09251192454006e-08,0.0098
2.592,1.9935393907306044e-08,0.0081
2.725,1.9095779105901075e-08,0.0081
2.865,1.78599479472302e-08,0.0084
3.012,1.7268280731605848e-08,0.0091
3.166,1.5803800406895106e-08,0.0089
3.329,1.505549555102351e-08,0.0093
3.679,1.3645927845535166e-08,0.0074
4.066,1.1911767843875324e-08,0.0072
4.493,1.0877228606256479e-08,0.0089
4.724,1.0088287500672306e-08,0.0107
4.966,9.746413237283068e-09,0.0121
5.22,9.163695315184532e-09,0.012
5.488,8.82426575100771e-09,0.0109
5.77,8.798282259878792e-09,0.0107
6.065,8.792385764870729e-09,0.0109
6.376,8.796854162435577e-09,0.0112
6.592,9.05067677606817e-09,0.0149
6.703,8.814440072786562e-09,0.0191
7.047,9.394984984569258e-09,0.0106
7.408,9.630632847619538e-09,0.0104
7.788,1.009399761839644e-08,0.0097
8.187,1.0379028546936874e-08,0.0096
8.607,1.0797889415417657e-08,0.009
9.048,1.1142730703357367e-08,0.0088
9.512,1.1905398778063185e-08,0.0083
10.0,1.568039897446045e-08,0.0073
10.51,2.3206301866857108e-08,0.0058
11.05,2.495666793725689e-08,0.0056
11.62,2.7586159750694468e-08,0.0051
12.21,3.059146690885669e-08,0.0049
12.52,3.315636681340422e-08,0.0069
12.84,3.434726663578563e-08,0.0063
13.5,3.5525222353626184e-08,0.0044
13.84,3.219050688375975e-08,0.0062
14.19,5.774200218593218e-09,0.0144
14.55,0.0,0.0
14.92,0.0,0.0
15.68,0.0,0.0
16.49,0.0,0.0
16.9,0.0,0.0
17.33,0.0,0.0
19.64,0.0,0.0
