Energy,Value,Error
1e-07,0.0,0.0
4.14e-07,8.601278405000868e-13,0.1358
5.316e-07,7.755413507578018e-12,0.1445
6.826e-07,1.9469540806270347e-11,0.0867
8.764e-07,4.936026458412643e-11,0.0551
1.125e-06,1.1446296411573537e-10,0.0398
1.445e-06,1.5684609332009172e-10,0.034
1.855e-06,2.121882515726557e-10,0.0307
2.382e-06,2.7340980241119807e-10,0.0257
3.059e-06,3.674538637113836e-10,0.0229
3.928e-06,4.6237371953105834e-10,0.021
5.043e-06,6.278926139453775e-10,0.0183
6.476e-06,8.123968906817542e-10,0.0177
8.315e-06,1.0075729626124029e-09,0.0145
1.068e-05,1.3491138121823584e-09,0.0128
1.371e-05,1.7465479643994204e-09,0.0113
1.76e-05,2.255984748144009e-09,0.0097
2.26e-05,2.9318858456315006e-09,0.0089
2.902e-05,3.77019502746875e-09,0.0077
3.727e-05,4.868997297699204e-09,0.0068
4.785e-05,6.136766626822793e-09,0.0061
6.144e-05,8.028162059661386e-09,0.0054
7.889e-05,1.0143468263591811e-08,0.0047
0.0001013,1.3014377587778707e-08,0.0041
0.0001301,1.6612462093068346e-08,0.0037
0.000167,2.1027358017768847e-08,0.0033
0.0002145,2.6394844734269885e-08,0.003
0.0002754,3.339097324243341e-08,0.0027
0.0003536,4.123080769039319e-08,0.0024
0.000454,5.0530773319645764e-08,0.0021
0.0005829,6.131320109946625e-08,0.0019
0.0007485,7.201679533073023e-08,0.0017
0.0009611,8.306238854285095e-08,0.0016
0.001234,9.367052672027697e-08,0.0014
0.001585,1.2978646573788432e-07,0.0011
0.002035,2.290731729352752e-06,0.0003
0.002249,3.78277379710411e-08,0.0046
0.002485,1.0954534629800652e-08,0.01
0.002613,2.497574629043986e-08,0.0169
0.002747,7.517213326345741e-08,0.0055
0.003035,1.789532495487879e-07,0.0023
0.003355,3.303799453067811e-07,0.0016
0.003707,4.770266576416023e-07,0.0013
0.004307,6.468474377244527e-07,0.0009
0.005531,9.036448582623406e-07,0.0006
0.007102,1.2284496551314095e-06,0.0005
0.009119,1.5959959668121115e-06,0.0004
0.01059,1.937097822447853e-06,0.0005
0.01171,2.177284680820309e-06,0.0006
0.01503,2.559651982338672e-06,0.0003
0.0193,3.1986640845441404e-06,0.0003
0.02187,3.7713080060893576e-06,0.0004
0.02358,4.1298400764156305e-06,0.0005
0.02418,4.325753808762824e-06,0.0008
0.02479,4.429829865674282e-06,0.0008
0.02606,4.586076442699017e-06,0.0005
0.027,4.78040336082452e-06,0.0006
0.0285,4.997815564613751e-06,0.0005
0.03183,5.430380196517071e-06,0.0003
0.03431,6.188334740925853e-06,0.0004
0.04087,6.6650876071368225e-06,0.0002
0.04631,6.707939449220204e-06,0.0003
0.05248,6.676571497610053e-06,0.0003
0.05656,6.806288733764184e-06,0.0004
0.06738,7.302871357991692e-06,0.0002
0.07202,5.376930174943183e-06,0.0004
0.0795,6.7702518238798585e-06,0.0003
0.0825,5.923878691141419e-06,0.0005
0.08652,4.724374090446386e-06,0.0005
0.09804,4.6430335758436e-06,0.0003
0.1111,4.4294461540913455e-06,0.0003
0.1168,5.143349809731897e-06,0.0005
0.1228,5.040130067468722e-06,0.0005
0.1291,5.043605376762447e-06,0.0005
0.1357,5.855019656805099e-06,0.0005
0.1426,4.773681492467078e-06,0.0005
0.15,6.827214979278112e-06,0.0004
0.1576,7.540068380747697e-06,0.0004
0.1657,8.31610973688808e-06,0.0004
0.1742,9.200893793198147e-06,0.0004
0.1832,1.0262417517221914e-05,0.0003
0.1925,1.0037400466222496e-05,0.0004
0.2024,9.817908748879394e-06,0.0004
0.2128,1.1920912150364753e-05,0.0003
0.2237,8.618242010063488e-06,0.0004
0.2352,1.7754195689467245e-05,0.0002
0.2472,8.148185286033922e-06,0.0004
0.2732,1.448397271968521e-05,0.0002
0.2872,1.4756544014187714e-05,0.0003
0.2945,1.6015073419039808e-05,0.0004
0.2972,1.829764762960034e-05,0.0006
0.2985,1.921486869655379e-05,0.0009
0.302,1.4631531527661133e-05,0.0006
0.3337,2.9527917872394085e-05,0.0001
0.3688,2.2221109929073276e-05,0.0002
0.3877,2.9880934273689898e-05,0.0002
0.4076,3.354366647135631e-05,0.0002
0.4505,2.4379701298778057e-05,0.0002
0.4979,1.719671897585813e-05,0.0002
0.5234,6.38670357036627e-06,0.0005
0.5502,6.353350281756566e-06,0.0005
0.5784,6.30898128930819e-06,0.0005
0.6081,6.251948219255199e-06,0.0005
0.6393,6.186832861365279e-06,0.0005
0.6721,6.123280523160071e-06,0.0005
0.7065,6.054503919909019e-06,0.0005
0.7427,5.9755457286281474e-06,0.0005
0.7808,5.895915022861763e-06,0.0005
0.8209,5.7839038291709796e-06,0.0005
0.8629,5.6446303452141405e-06,0.0005
0.9072,5.493514736635585e-06,0.0005
0.9617,5.300428879247273e-06,0.0005
1.003,5.106777814805421e-06,0.0005
1.108,4.914540935248797e-06,0.0004
1.165,4.717140730343638e-06,0.0005
1.225,4.534151770091136e-06,0.0005
1.287,4.352027054123193e-06,0.0005
1.353,4.173830125830994e-06,0.0006
1.423,3.974587545532823e-06,0.0006
1.496,3.803723353866906e-06,0.0006
1.572,3.669102005580274e-06,0.0006
1.653,3.5126597040008095e-06,0.0006
1.738,3.4058850001242357e-06,0.0006
1.827,3.3094948097164886e-06,0.0006
1.921,3.203329829201973e-06,0.0006
2.019,3.0982311403353e-06,0.0006
2.122,3.002610651720867e-06,0.0006
2.231,2.9014466057874635e-06,0.0006
2.307,2.8254289779600797e-06,0.0008
2.346,2.745384668586705e-06,0.0011
2.365,2.6847719456484587e-06,0.0016
2.385,2.6700185963289524e-06,0.0016
2.466,2.6029723373179756e-06,0.0008
2.592,2.518423076431308e-06,0.0007
2.725,2.422507419924526e-06,0.0007
2.865,2.321899820132108e-06,0.0007
3.012,2.230575780117469e-06,0.0007
3.166,2.1562970304594277e-06,0.0007
3.329,2.08336167103109e-06,0.0007
3.679,1.9770925521117857e-06,0.0005
4.066,1.8542625281962071e-06,0.0005
4.493,1.7100884785805922e-06,0.0005
4.724,1.6135487617479899e-06,0.0007
4.966,1.564911839433974e-06,0.0008
5.22,1.5241532120247497e-06,0.0008
5.488,1.491552577263134e-06,0.0008
5.77,1.4620104988631068e-06,0.0008
6.065,1.4431838560026757e-06,0.0007
6.376,1.428423187774971e-06,0.0007
6.592,1.4133152363856142e-06,0.0009
6.703,1.4086264174422397e-06,0.0013
7.047,1.3955795430300382e-06,0.0007
7.408,1.3811622818520204e-06,0.0007
7.788,1.3671089934360461e-06,0.0007
8.187,1.3542841744635643e-06,0.0007
8.607,1.3469637458610866e-06,0.0007
9.048,1.3539949087260062e-06,0.0007
9.512,1.4192802056930222e-06,0.0007
10.0,1.7432195186999073e-06,0.0006
10.51,3.0917276323079946e-06,0.0005
11.05,3.250148892688577e-06,0.0005
11.62,3.44698262399327e-06,0.0004
12.21,3.668302768714624e-06,0.0004
12.52,3.834855719905625e-06,0.0006
12.84,3.941840309057621e-06,0.0006
13.5,3.948517101648041e-06,0.0004
13.84,3.5235623830653503e-06,0.0006
14.19,1.2659091521339587e-06,0.001
14.55,0.0,0.0
14.92,0.0,0.0
15.68,0.0,0.0
16.49,0.0,0.0
16.9,0.0,0.0
17.33,0.0,0.0
19.64,0.0,0.0
