Energy,Value,Error
1e-07,0.0,0.0
4.14e-07,7.473098808973487e-13,0.1609
5.316e-07,7.515957791274314e-12,0.1307
6.826e-07,2.378679497831361e-11,0.0856
8.764e-07,7.280236887133154e-11,0.0575
1.125e-06,1.5171612738225039e-10,0.039
1.445e-06,1.9118847158379147e-10,0.0335
1.855e-06,2.606634065973646e-10,0.0321
2.382e-06,3.2678509441051613e-10,0.0264
3.059e-06,4.170257975846232e-10,0.0242
3.928e-06,5.900441047696559e-10,0.0204
5.043e-06,7.269118058368476e-10,0.0179
6.476e-06,9.578256181668502e-10,0.0166
8.315e-06,1.2098708864938197e-09,0.0157
1.068e-05,1.6002087260650929e-09,0.0129
1.371e-05,2.044034285415796e-09,0.0125
1.76e-05,2.5978546074020496e-09,0.0104
2.26e-05,3.4137595352375502e-09,0.0095
2.902e-05,4.3129503010262484e-09,0.008
3.727e-05,5.508876522943527e-09,0.0074
4.785e-05,7.028426047693358e-09,0.0067
6.144e-05,9.082164342268004e-09,0.0058
7.889e-05,1.1375980859765764e-08,0.005
0.0001013,1.4564579570262788e-08,0.0045
0.0001301,1.849103168804871e-08,0.0041
0.000167,2.31801437960516e-08,0.0035
0.0002145,2.8778192888138566e-08,0.0032
0.0002754,3.385104994837536e-08,0.0028
0.0003536,3.383208362399439e-08,0.0027
0.000454,3.832899915219322e-08,0.0024
0.0005829,7.681385759899457e-08,0.0019
0.0007485,9.505687501326021e-08,0.0017
0.0009611,1.0496575264705161e-07,0.0016
0.001234,1.413936111740191e-07,0.0014
0.001585,1.6155136426582299e-07,0.0013
0.002035,2.818678809374416e-07,0.001
0.002249,2.698793817390957e-07,0.0016
0.002485,2.897401855031336e-07,0.0015
0.002613,3.117010726894951e-07,0.0021
0.002747,3.454300084161401e-07,0.002
0.003035,7.596877372841674e-07,0.0008
0.003355,3.7261343883152206e-07,0.0014
0.003707,5.078080998192763e-07,0.0012
0.004307,6.035681613195199e-07,0.0009
0.005531,7.342309374352381e-07,0.0006
0.007102,8.977199785385877e-07,0.0006
0.009119,1.0697496859308647e-06,0.0005
0.01059,1.5871145642161362e-06,0.0005
0.01171,3.094933447749651e-06,0.0004
0.01503,1.8166060474998567e-06,0.0004
0.0193,2.1754329398066766e-06,0.0004
0.02187,2.8961111944423454e-06,0.0004
0.02358,3.3130427828877476e-06,0.0005
0.02418,3.5463914134199553e-06,0.0008
0.02479,3.6851992546132234e-06,0.0008
0.02606,3.921200840307425e-06,0.0005
0.027,4.233688556318759e-06,0.0006
0.0285,4.6167528890046605e-06,0.0005
0.03183,5.566437198866128e-06,0.0003
0.03431,7.196630145476056e-06,0.0003
0.04087,1.167704921642421e-05,0.0002
0.04631,1.2905402173577145e-05,0.0002
0.05248,7.502553035434678e-06,0.0003
0.05656,7.959783350228025e-06,0.0003
0.06738,8.215144718097527e-06,0.0002
0.07202,8.01650315827711e-06,0.0004
0.0795,7.532862769395174e-06,0.0003
0.0825,6.986153235588949e-06,0.0005
0.08652,6.613951375552785e-06,0.0005
0.09804,6.08281006450312e-06,0.0003
0.1111,6.363497036732489e-06,0.0003
0.1168,6.949920100685432e-06,0.0005
0.1228,7.316952131969455e-06,0.0004
0.1291,7.69761799315386e-06,0.0004
0.1357,8.092798153444233e-06,0.0004
0.1426,8.508488433069962e-06,0.0004
0.15,8.944218710957014e-06,0.0004
0.1576,9.390978162239432e-06,0.0004
0.1657,9.863574600414648e-06,0.0004
0.1742,1.0373304305523514e-05,0.0004
0.1832,1.0932817723763004e-05,0.0004
0.1925,1.1545043142617314e-05,0.0004
0.2024,1.2186812286830578e-05,0.0004
0.2128,1.2728167529098904e-05,0.0003
0.2237,1.3273427547294326e-05,0.0003
0.2352,1.3855459501984746e-05,0.0003
0.2472,1.4482940859030462e-05,0.0003
0.2732,1.5528305860296415e-05,0.0002
0.2872,1.664459901213834e-05,0.0003
0.2945,1.7243830236874547e-05,0.0004
0.2972,1.749929646708002e-05,0.0007
0.2985,1.76112697537924e-05,0.001
0.302,1.7765505538719017e-05,0.0006
0.3337,1.8682994715348114e-05,0.0002
0.3688,2.0487119844614324e-05,0.0002
0.3877,2.1962747809433013e-05,0.0003
0.4076,2.294840612364003e-05,0.0003
0.4505,2.386067383437291e-05,0.0002
0.4979,2.4670341592186994e-05,0.0002
0.5234,2.4883107253588022e-05,0.0002
0.5502,2.4719711239362996e-05,0.0002
0.5784,2.429746151458238e-05,0.0002
0.6081,2.350197159269559e-05,0.0003
0.6393,2.227303799765048e-05,0.0003
0.6721,2.052952273791355e-05,0.0003
0.7065,1.827307568875151e-05,0.0003
0.7427,1.569843536878557e-05,0.0003
0.7808,1.2545265595137013e-05,0.0003
0.8209,1.0011268608858153e-05,0.0004
0.8629,8.55441481210065e-06,0.0004
0.9072,7.353409478942136e-06,0.0005
0.9617,6.267833212942665e-06,0.0005
1.003,5.4201322186310275e-06,0.0006
1.108,4.8716627339670055e-06,0.0004
1.165,4.429845922748279e-06,0.0006
1.225,4.135603445606832e-06,0.0006
1.287,3.862833393503956e-06,0.0006
1.353,3.5888320461543153e-06,0.0006
1.423,3.3380270882179497e-06,0.0008
1.496,3.1266365701223583e-06,0.0007
1.572,2.7777276384192324e-06,0.0007
1.653,2.357715615746383e-06,0.0008
1.738,2.1298597407412265e-06,0.0008
1.827,1.9348160838339133e-06,0.0009
1.921,1.7812401808408816e-06,0.0009
2.019,1.6094152833843578e-06,0.0009
2.122,1.4218587401425448e-06,0.001
2.231,1.2594988543180465e-06,0.001
2.307,1.1566131194718311e-06,0.0013
2.346,1.0816003127873792e-06,0.0019
2.365,1.0469260521928069e-06,0.0029
2.385,1.0237602625135183e-06,0.0027
2.466,9.827781432179246e-07,0.0014
2.592,9.116503305632028e-07,0.0012
2.725,8.019600908615918e-07,0.0012
2.865,7.381648211346085e-07,0.0013
3.012,6.798930240517717e-07,0.0013
3.166,6.277412765375226e-07,0.0014
3.329,5.742226887971523e-07,0.0014
3.679,4.919854292392515e-07,0.0011
4.066,3.965956816039973e-07,0.0012
4.493,3.299419000814947e-07,0.0013
4.724,3.073146018500341e-07,0.0019
4.966,3.0272351228170996e-07,0.0019
5.22,3.0304084406813886e-07,0.0018
5.488,3.0723544734076685e-07,0.0018
5.77,3.135675020343903e-07,0.0018
6.065,3.237084450450536e-07,0.0017
6.376,3.400424807383133e-07,0.0017
6.592,3.5348038859476074e-07,0.002
6.703,3.6321694893611994e-07,0.0028
7.047,3.764575832309499e-07,0.0016
7.408,3.975219193497522e-07,0.0015
7.788,4.2165106362766694e-07,0.0015
8.187,4.42319398427982e-07,0.0015
8.607,4.663780741011965e-07,0.0014
9.048,4.933606077910742e-07,0.0014
9.512,5.363242238676492e-07,0.0013
10.0,6.369279504401555e-07,0.0012
10.51,1.1617183314725986e-06,0.0009
11.05,1.229986248751829e-06,0.0008
11.62,1.2985044830851895e-06,0.0008
12.21,1.3828913078488075e-06,0.0008
12.52,1.4464577149074801e-06,0.001
12.84,1.4889294068046461e-06,0.001
13.5,1.5286171922845158e-06,0.0007
13.84,1.5364247673786932e-06,0.001
14.19,5.116890840552983e-07,0.0016
14.55,0.0,0.0
14.92,0.0,0.0
15.68,0.0,0.0
16.49,0.0,0.0
16.9,0.0,0.0
17.33,0.0,0.0
19.64,0.0,0.0
