Energy,Value,Error
1e-07,9.43697e-12,0.0733
4.14e-07,6.66498e-11,0.0294
5.316e-07,2.91577e-11,0.0428
6.826e-07,4.35416e-11,0.0368
8.764e-07,5.59892e-11,0.0325
1.125e-06,8.48352e-11,0.026
1.445e-06,1.10283e-10,0.0229
1.855e-06,1.40547e-10,0.0196
2.382e-06,1.80844e-10,0.027
3.059e-06,2.32684e-10,0.0152
3.928e-06,2.85943e-10,0.0138
5.043e-06,3.90611e-10,0.0138
6.476e-06,4.89096e-10,0.0109
8.315e-06,6.1147e-10,0.0092
1.068e-05,7.96569e-10,0.0083
1.371e-05,1.02209e-09,0.0072
1.76e-05,1.29838e-09,0.0065
2.26e-05,1.68928e-09,0.0057
2.902e-05,2.15036e-09,0.0052
3.727e-05,2.75445e-09,0.0045
4.785e-05,3.51678e-09,0.004
6.144e-05,4.50124e-09,0.0035
7.889e-05,5.7183e-09,0.0031
0.0001013,7.34206e-09,0.0027
0.0001301,9.41111e-09,0.0025
0.000167,1.20039e-08,0.0021
0.0002145,1.5321e-08,0.0019
0.0002754,1.95193e-08,0.0017
0.0003536,2.48854e-08,0.0015
0.000454,3.16502e-08,0.0013
0.0005829,4.03101e-08,0.0012
0.0007485,5.1159e-08,0.0011
0.0009611,6.49116e-08,0.0009
0.001234,8.22396e-08,0.0008
0.001585,1.04191e-07,0.0007
0.002035,1.31236e-07,0.0006
0.002249,6.1502e-08,0.0009
0.002485,6.7382e-08,0.0009
0.002613,3.63162e-08,0.0012
0.002747,3.77561e-08,0.0012
0.003035,8.07184e-08,0.0008
0.003355,8.88735e-08,0.0008
0.003707,9.66439e-08,0.0008
0.004307,1.62249e-07,0.0006
0.005531,3.23194e-07,0.0004
0.007102,4.00371e-07,0.0004
0.009119,4.93404e-07,0.0003
0.01059,3.46389e-07,0.0004
0.01171,2.57246e-07,0.0005
0.01503,7.32173e-07,0.0003
0.0193,8.80085e-07,0.0002
0.02187,4.99646e-07,0.0003
0.02358,3.21013e-07,0.0004
0.02418,1.10708e-07,0.0007
0.02479,1.11433e-07,0.0007
0.02606,2.29019e-07,0.0005
0.027,1.66908e-07,0.0006
0.0285,2.61921e-07,0.0004
0.03183,5.63829e-07,0.0003
0.03431,4.05432e-07,0.0004
0.04087,1.01489e-06,0.0002
0.04631,7.78912e-07,0.0003
0.05248,8.24395e-07,0.0002
0.05656,5.13312e-07,0.0003
0.06738,1.24586e-06,0.0002
0.07202,4.9086e-07,0.0003
0.0795,7.47326e-07,0.0002
0.0825,2.86611e-07,0.0004
0.08652,3.7376e-07,0.0003
0.09804,1.01435e-06,0.0002
0.1111,7.67853e-07,0.0003
0.1168,2.98879e-07,0.0004
0.1228,3.06908e-07,0.0004
0.1291,3.13954e-07,0.0004
0.1357,3.20093e-07,0.0004
0.1426,3.24622e-07,0.0004
0.15,3.37162e-07,0.0004
0.1576,3.34126e-07,0.0004
0.1657,3.42777e-07,0.0004
0.1742,3.45586e-07,0.0004
0.1832,3.50855e-07,0.0004
0.1925,3.46879e-07,0.0004
0.2024,3.5305e-07,0.0004
0.2128,3.53673e-07,0.0004
0.2237,3.52245e-07,0.0004
0.2352,3.53142e-07,0.0004
0.2472,3.49846e-07,0.0004
0.2732,6.97607e-07,0.0003
0.2872,3.44347e-07,0.0004
0.2945,1.71569e-07,0.0005
0.2972,6.20947e-08,0.0009
0.2985,2.96918e-08,0.0014
0.302,7.90701e-08,0.0008
0.3337,6.6098e-07,0.0003
0.3688,6.25579e-07,0.0003
0.3877,2.88825e-07,0.0004
0.4076,2.71946e-07,0.0004
0.4505,4.87555e-07,0.0003
0.4979,4.13234e-07,0.0003
0.5234,1.789e-07,0.0005
0.5502,1.61164e-07,0.0005
0.5784,1.43576e-07,0.0006
0.6081,1.26739e-07,0.0006
0.6393,1.09874e-07,0.0007
0.6721,9.36341e-08,0.0008
0.7065,7.80312e-08,0.0008
0.7427,6.43221e-08,0.001
0.7808,5.24982e-08,0.0011
0.8209,4.3383e-08,0.0013
0.8629,3.63126e-08,0.0014
0.9072,3.18225e-08,0.0016
0.9617,3.36281e-08,0.0016
1.003,2.30076e-08,0.0019
1.108,5.50962e-08,0.0013
1.165,2.99589e-08,0.0017
1.225,3.27776e-08,0.0017
1.287,3.58635e-08,0.0016
1.353,4.10782e-08,0.0015
1.423,4.69565e-08,0.0013
1.496,5.30142e-08,0.0012
1.572,5.96922e-08,0.0012
1.653,6.80764e-08,0.0011
1.738,7.60281e-08,0.001
1.827,8.41938e-08,0.0009
1.921,9.31868e-08,0.0009
2.019,1.00719e-07,0.0008
2.122,1.09211e-07,0.0008
2.231,1.18313e-07,0.0008
2.307,8.34984e-08,0.0009
2.346,4.32594e-08,0.0012
2.365,2.11553e-08,0.0018
2.385,2.22076e-08,0.0017
2.466,9.04849e-08,0.0009
2.592,1.41281e-07,0.0007
2.725,1.49385e-07,0.0007
2.865,1.56989e-07,0.0006
3.012,1.64162e-07,0.0006
3.166,1.70771e-07,0.0006
3.329,1.79135e-07,0.0006
3.679,3.79214e-07,0.0004
4.066,4.10602e-07,0.0004
4.493,4.43614e-07,0.0004
4.724,2.36602e-07,0.0005
4.966,2.45999e-07,0.0005
5.22,2.56672e-07,0.0005
5.488,2.69963e-07,0.0004
5.77,2.84654e-07,0.0004
6.065,2.99556e-07,0.0004
6.376,3.1941e-07,0.0004
6.592,2.24419e-07,0.0005
6.703,1.16213e-07,0.0007
7.047,3.65021e-07,0.0004
7.408,3.90527e-07,0.0004
7.788,4.20236e-07,0.0003
8.187,4.49908e-07,0.0003
8.607,4.82151e-07,0.0003
9.048,5.1366e-07,0.0003
9.512,5.46348e-07,0.0003
10.0,5.78126e-07,0.0003
10.51,6.86082e-07,0.0002
11.05,6.769e-07,0.0002
11.62,6.54854e-07,0.0002
12.21,6.09171e-07,0.0002
12.52,2.90638e-07,0.0003
12.84,2.77988e-07,0.0003
13.5,5.00732e-07,0.0003
13.84,2.18262e-07,0.0004
14.19,9.31336e-08,0.0006
14.55,0.0,0.0
14.92,0.0,0.0
15.68,0.0,0.0
16.49,0.0,0.0
16.9,0.0,0.0
17.33,0.0,0.0
19.64,0.0,0.0
